# OpenSignals Text File Format. Version 1
# {"98:D3:71:FE:38:C0": {"position": 0, "device": "bitalino_rev", "device name": "98:D3:71:FE:38:C0", "device connection": "BTH98:D3:71:FE:38:C0", "sampling rate": 1000, "resolution": [4, 1, 1, 1, 1, 10, 10], "firmware version": 1282, "comments": "Intervalo extra\u00eddo: 14.0-36.0s. Original: basal_trapecio_vall3.txt", "keywords": "", "mode": 0, "sync interval": 2, "date": "2026-6-5", "time": "15:24:39.221", "channels": [1, 2], "sensor": ["EMGBITREV", "EMGBITREV"], "label": ["A1", "A2"], "column": ["nSeq", "I1", "I2", "O1", "O2", "A1", "A2"], "special": [{}, {}], "digital IO": [0, 0, 1, 1]}}
# EndOfHeader
0	0	0	0	0	507	512
1	0	0	0	0	508	512
2	0	0	0	0	512	512
3	0	0	0	0	508	513
4	0	0	0	0	510	510
5	0	0	0	0	510	511
6	0	0	0	0	510	511
7	0	0	0	0	511	513
8	0	0	0	0	508	514
9	0	0	0	0	509	513
10	0	0	0	0	510	512
11	0	0	0	0	507	512
12	0	0	0	0	510	511
13	0	0	0	0	508	512
14	0	0	0	0	509	512
15	0	0	0	0	511	512
16	0	0	0	0	512	511
17	0	0	0	0	515	513
18	0	0	0	0	513	512
19	0	0	0	0	511	513
20	0	0	0	0	508	513
21	0	0	0	0	507	512
22	0	0	0	0	509	512
23	0	0	0	0	508	513
24	0	0	0	0	507	512
25	0	0	0	0	506	511
26	0	0	0	0	503	508
27	0	0	0	0	504	508
28	0	0	0	0	507	512
29	0	0	0	0	503	510
30	0	0	0	0	509	512
31	0	0	0	0	510	511
32	0	0	0	0	519	514
33	0	0	0	0	526	511
34	0	0	0	0	526	511
35	0	0	0	0	513	513
36	0	0	0	0	510	513
37	0	0	0	0	509	514
38	0	0	0	0	506	513
39	0	0	0	0	505	512
40	0	0	0	0	507	513
41	0	0	0	0	505	510
42	0	0	0	0	508	513
43	0	0	0	0	506	513
44	0	0	0	0	506	512
45	0	0	0	0	510	515
46	0	0	0	0	514	513
47	0	0	0	0	516	513
48	0	0	0	0	515	512
49	0	0	0	0	514	514
50	0	0	0	0	511	513
51	0	0	0	0	510	512
52	0	0	0	0	509	511
53	0	0	0	0	511	511
54	0	0	0	0	513	512
55	0	0	0	0	508	513
56	0	0	0	0	502	513
57	0	0	0	0	504	511
58	0	0	0	0	508	511
59	0	0	0	0	507	511
60	0	0	0	0	504	513
61	0	0	0	0	500	513
62	0	0	0	0	502	511
63	0	0	0	0	508	514
64	0	0	0	0	504	513
65	0	0	0	0	506	515
66	0	0	0	0	508	513
67	0	0	0	0	508	512
68	0	0	0	0	511	513
69	0	0	0	0	508	512
70	0	0	0	0	506	512
71	0	0	0	0	515	513
72	0	0	0	0	518	513
73	0	0	0	0	516	512
74	0	0	0	0	515	512
75	0	0	0	0	512	511
76	0	0	0	0	516	513
77	0	0	0	0	513	510
78	0	0	0	0	515	512
79	0	0	0	0	512	513
80	0	0	0	0	511	512
81	0	0	0	0	510	511
82	0	0	0	0	507	512
83	0	0	0	0	507	513
84	0	0	0	0	504	513
85	0	0	0	0	505	514
86	0	0	0	0	504	515
87	0	0	0	0	506	515
88	0	0	0	0	507	510
89	0	0	0	0	506	511
90	0	0	0	0	508	512
91	0	0	0	0	511	515
92	0	0	0	0	509	512
93	0	0	0	0	510	514
94	0	0	0	0	510	511
95	0	0	0	0	511	512
96	0	0	0	0	511	511
97	0	0	0	0	510	512
98	0	0	0	0	511	512
99	0	0	0	0	510	513
100	0	0	0	0	512	513
101	0	0	0	0	511	513
102	0	0	0	0	509	514
103	0	0	0	0	511	511
104	0	0	0	0	511	511
105	0	0	0	0	510	511
106	0	0	0	0	509	511
107	0	0	0	0	511	513
108	0	0	0	0	510	512
109	0	0	0	0	510	513
110	0	0	0	0	510	513
111	0	0	0	0	510	513
112	0	0	0	0	511	513
113	0	0	0	0	511	514
114	0	0	0	0	508	511
115	0	0	0	0	510	513
116	0	0	0	0	509	513
117	0	0	0	0	511	512
118	0	0	0	0	507	513
119	0	0	0	0	505	511
120	0	0	0	0	506	512
121	0	0	0	0	508	513
122	0	0	0	0	509	515
123	0	0	0	0	509	513
124	0	0	0	0	510	510
125	0	0	0	0	510	512
126	0	0	0	0	509	510
127	0	0	0	0	511	512
128	0	0	0	0	510	513
129	0	0	0	0	511	512
130	0	0	0	0	510	512
131	0	0	0	0	510	512
132	0	0	0	0	510	511
133	0	0	0	0	512	511
134	0	0	0	0	511	511
135	0	0	0	0	509	512
136	0	0	0	0	511	511
137	0	0	0	0	514	512
138	0	0	0	0	510	511
139	0	0	0	0	511	512
140	0	0	0	0	512	513
141	0	0	0	0	512	511
142	0	0	0	0	508	513
143	0	0	0	0	507	513
144	0	0	0	0	505	513
145	0	0	0	0	502	512
146	0	0	0	0	503	510
147	0	0	0	0	508	513
148	0	0	0	0	513	514
149	0	0	0	0	512	513
150	0	0	0	0	514	512
151	0	0	0	0	513	512
152	0	0	0	0	512	512
153	0	0	0	0	512	512
154	0	0	0	0	515	511
155	0	0	0	0	517	514
156	0	0	0	0	517	513
157	0	0	0	0	513	511
158	0	0	0	0	504	510
159	0	0	0	0	502	511
160	0	0	0	0	503	512
161	0	0	0	0	504	512
162	0	0	0	0	505	512
163	0	0	0	0	504	514
164	0	0	0	0	507	517
165	0	0	0	0	507	514
166	0	0	0	0	510	513
167	0	0	0	0	506	513
168	0	0	0	0	506	513
169	0	0	0	0	505	512
170	0	0	0	0	506	512
171	0	0	0	0	510	511
172	0	0	0	0	511	511
173	0	0	0	0	515	512
174	0	0	0	0	519	512
175	0	0	0	0	515	512
176	0	0	0	0	510	513
177	0	0	0	0	511	512
178	0	0	0	0	509	512
179	0	0	0	0	505	512
180	0	0	0	0	505	512
181	0	0	0	0	509	514
182	0	0	0	0	515	512
183	0	0	0	0	511	512
184	0	0	0	0	509	513
185	0	0	0	0	510	514
186	0	0	0	0	511	513
187	0	0	0	0	509	511
188	0	0	0	0	509	513
189	0	0	0	0	508	511
190	0	0	0	0	507	513
191	0	0	0	0	510	512
192	0	0	0	0	512	512
193	0	0	0	0	509	512
194	0	0	0	0	512	512
195	0	0	0	0	515	511
196	0	0	0	0	512	513
197	0	0	0	0	513	512
198	0	0	0	0	511	513
199	0	0	0	0	509	512
200	0	0	0	0	507	512
201	0	0	0	0	506	510
202	0	0	0	0	506	511
203	0	0	0	0	507	512
204	0	0	0	0	507	514
205	0	0	0	0	507	512
206	0	0	0	0	511	514
207	0	0	0	0	509	511
208	0	0	0	0	512	511
209	0	0	0	0	512	512
210	0	0	0	0	513	511
211	0	0	0	0	511	512
212	0	0	0	0	508	514
213	0	0	0	0	507	513
214	0	0	0	0	505	512
215	0	0	0	0	509	513
216	0	0	0	0	509	512
217	0	0	0	0	508	512
218	0	0	0	0	507	513
219	0	0	0	0	505	512
220	0	0	0	0	508	511
221	0	0	0	0	512	512
222	0	0	0	0	513	512
223	0	0	0	0	514	512
224	0	0	0	0	512	513
225	0	0	0	0	514	513
226	0	0	0	0	513	512
227	0	0	0	0	511	511
228	0	0	0	0	515	512
229	0	0	0	0	515	514
230	0	0	0	0	511	512
231	0	0	0	0	508	515
232	0	0	0	0	505	515
233	0	0	0	0	504	514
234	0	0	0	0	508	515
235	0	0	0	0	508	516
236	0	0	0	0	506	514
237	0	0	0	0	508	514
238	0	0	0	0	511	514
239	0	0	0	0	510	513
240	0	0	0	0	510	514
241	0	0	0	0	512	512
242	0	0	0	0	513	515
243	0	0	0	0	512	514
244	0	0	0	0	512	515
245	0	0	0	0	509	513
246	0	0	0	0	508	515
247	0	0	0	0	507	515
248	0	0	0	0	508	515
249	0	0	0	0	508	514
250	0	0	0	0	509	512
251	0	0	0	0	506	511
252	0	0	0	0	503	514
253	0	0	0	0	505	511
254	0	0	0	0	507	510
255	0	0	0	0	508	504
256	0	0	0	0	514	508
257	0	0	0	0	518	508
258	0	0	0	0	515	507
259	0	0	0	0	511	508
260	0	0	0	0	506	508
261	0	0	0	0	505	508
262	0	0	0	0	509	509
263	0	0	0	0	512	510
264	0	0	0	0	511	509
265	0	0	0	0	508	508
266	0	0	0	0	508	505
267	0	0	0	0	512	507
268	0	0	0	0	510	505
269	0	0	0	0	512	506
270	0	0	0	0	515	506
271	0	0	0	0	513	508
272	0	0	0	0	510	510
273	0	0	0	0	511	513
274	0	0	0	0	509	514
275	0	0	0	0	508	515
276	0	0	0	0	507	516
277	0	0	0	0	504	513
278	0	0	0	0	504	515
279	0	0	0	0	505	515
280	0	0	0	0	508	516
281	0	0	0	0	512	516
282	0	0	0	0	511	515
283	0	0	0	0	510	517
284	0	0	0	0	505	515
285	0	0	0	0	506	515
286	0	0	0	0	506	515
287	0	0	0	0	507	512
288	0	0	0	0	510	512
289	0	0	0	0	512	515
290	0	0	0	0	510	514
291	0	0	0	0	511	516
292	0	0	0	0	512	514
293	0	0	0	0	514	512
294	0	0	0	0	513	512
295	0	0	0	0	510	513
296	0	0	0	0	510	513
297	0	0	0	0	510	514
298	0	0	0	0	511	514
299	0	0	0	0	508	513
300	0	0	0	0	504	514
301	0	0	0	0	505	514
302	0	0	0	0	506	513
303	0	0	0	0	510	513
304	0	0	0	0	511	512
305	0	0	0	0	512	510
306	0	0	0	0	513	512
307	0	0	0	0	513	510
308	0	0	0	0	513	512
309	0	0	0	0	509	512
310	0	0	0	0	503	511
311	0	0	0	0	503	512
312	0	0	0	0	504	512
313	0	0	0	0	505	512
314	0	0	0	0	507	512
315	0	0	0	0	506	511
316	0	0	0	0	506	511
317	0	0	0	0	506	512
318	0	0	0	0	504	510
319	0	0	0	0	504	512
320	0	0	0	0	502	511
321	0	0	0	0	504	511
322	0	0	0	0	507	510
323	0	0	0	0	507	512
324	0	0	0	0	509	511
325	0	0	0	0	510	515
326	0	0	0	0	513	515
327	0	0	0	0	515	512
328	0	0	0	0	514	513
329	0	0	0	0	513	514
330	0	0	0	0	514	513
331	0	0	0	0	515	513
332	0	0	0	0	517	512
333	0	0	0	0	519	511
334	0	0	0	0	515	513
335	0	0	0	0	515	513
336	0	0	0	0	519	512
337	0	0	0	0	514	512
338	0	0	0	0	515	513
339	0	0	0	0	518	515
340	0	0	0	0	519	511
341	0	0	0	0	513	511
342	0	0	0	0	519	511
343	0	0	0	0	519	512
344	0	0	0	0	518	512
345	0	0	0	0	514	511
346	0	0	0	0	511	514
347	0	0	0	0	513	512
348	0	0	0	0	511	515
349	0	0	0	0	510	515
350	0	0	0	0	508	514
351	0	0	0	0	508	513
352	0	0	0	0	507	515
353	0	0	0	0	508	513
354	0	0	0	0	512	511
355	0	0	0	0	511	511
356	0	0	0	0	510	511
357	0	0	0	0	507	513
358	0	0	0	0	508	512
359	0	0	0	0	506	513
360	0	0	0	0	505	513
361	0	0	0	0	505	512
362	0	0	0	0	505	510
363	0	0	0	0	504	512
364	0	0	0	0	504	511
365	0	0	0	0	500	512
366	0	0	0	0	502	513
367	0	0	0	0	505	513
368	0	0	0	0	503	513
369	0	0	0	0	504	514
370	0	0	0	0	506	513
371	0	0	0	0	508	514
372	0	0	0	0	507	513
373	0	0	0	0	508	513
374	0	0	0	0	510	513
375	0	0	0	0	508	512
376	0	0	0	0	511	511
377	0	0	0	0	512	511
378	0	0	0	0	510	511
379	0	0	0	0	510	511
380	0	0	0	0	508	510
381	0	0	0	0	505	512
382	0	0	0	0	507	513
383	0	0	0	0	510	513
384	0	0	0	0	510	514
385	0	0	0	0	519	514
386	0	0	0	0	516	514
387	0	0	0	0	514	513
388	0	0	0	0	510	513
389	0	0	0	0	504	511
390	0	0	0	0	507	511
391	0	0	0	0	510	510
392	0	0	0	0	512	512
393	0	0	0	0	511	513
394	0	0	0	0	511	512
395	0	0	0	0	512	514
396	0	0	0	0	511	513
397	0	0	0	0	504	511
398	0	0	0	0	505	512
399	0	0	0	0	505	511
400	0	0	0	0	506	514
401	0	0	0	0	507	512
402	0	0	0	0	509	512
403	0	0	0	0	512	512
404	0	0	0	0	513	511
405	0	0	0	0	515	511
406	0	0	0	0	513	513
407	0	0	0	0	511	512
408	0	0	0	0	508	512
409	0	0	0	0	510	513
410	0	0	0	0	508	513
411	0	0	0	0	505	512
412	0	0	0	0	508	511
413	0	0	0	0	511	511
414	0	0	0	0	513	513
415	0	0	0	0	510	512
416	0	0	0	0	508	512
417	0	0	0	0	510	512
418	0	0	0	0	509	512
419	0	0	0	0	506	513
420	0	0	0	0	502	512
421	0	0	0	0	505	512
422	0	0	0	0	504	513
423	0	0	0	0	506	512
424	0	0	0	0	510	512
425	0	0	0	0	513	513
426	0	0	0	0	511	513
427	0	0	0	0	512	510
428	0	0	0	0	512	512
429	0	0	0	0	511	514
430	0	0	0	0	511	515
431	0	0	0	0	509	514
432	0	0	0	0	508	513
433	0	0	0	0	510	512
434	0	0	0	0	509	511
435	0	0	0	0	509	514
436	0	0	0	0	511	511
437	0	0	0	0	509	513
438	0	0	0	0	509	512
439	0	0	0	0	507	513
440	0	0	0	0	513	512
441	0	0	0	0	510	513
442	0	0	0	0	510	510
443	0	0	0	0	510	511
444	0	0	0	0	509	511
445	0	0	0	0	510	512
446	0	0	0	0	511	512
447	0	0	0	0	508	511
448	0	0	0	0	511	511
449	0	0	0	0	514	512
450	0	0	0	0	515	512
451	0	0	0	0	513	513
452	0	0	0	0	510	513
453	0	0	0	0	507	512
454	0	0	0	0	507	512
455	0	0	0	0	508	514
456	0	0	0	0	510	512
457	0	0	0	0	508	511
458	0	0	0	0	510	512
459	0	0	0	0	510	512
460	0	0	0	0	510	511
461	0	0	0	0	509	512
462	0	0	0	0	511	512
463	0	0	0	0	504	511
464	0	0	0	0	505	511
465	0	0	0	0	509	511
466	0	0	0	0	508	514
467	0	0	0	0	508	515
468	0	0	0	0	508	513
469	0	0	0	0	508	512
470	0	0	0	0	509	512
471	0	0	0	0	511	512
472	0	0	0	0	513	511
473	0	0	0	0	508	511
474	0	0	0	0	507	511
475	0	0	0	0	510	512
476	0	0	0	0	510	511
477	0	0	0	0	511	512
478	0	0	0	0	511	513
479	0	0	0	0	507	513
480	0	0	0	0	507	512
481	0	0	0	0	504	514
482	0	0	0	0	507	513
483	0	0	0	0	511	510
484	0	0	0	0	513	511
485	0	0	0	0	515	512
486	0	0	0	0	519	512
487	0	0	0	0	515	515
488	0	0	0	0	508	514
489	0	0	0	0	507	512
490	0	0	0	0	508	510
491	0	0	0	0	508	511
492	0	0	0	0	510	511
493	0	0	0	0	508	508
494	0	0	0	0	509	510
495	0	0	0	0	510	511
496	0	0	0	0	510	512
497	0	0	0	0	508	513
498	0	0	0	0	508	513
499	0	0	0	0	510	511
500	0	0	0	0	511	515
501	0	0	0	0	510	515
502	0	0	0	0	511	511
503	0	0	0	0	509	512
504	0	0	0	0	506	512
505	0	0	0	0	507	512
506	0	0	0	0	509	513
507	0	0	0	0	512	513
508	0	0	0	0	512	513
509	0	0	0	0	510	511
510	0	0	0	0	505	511
511	0	0	0	0	507	512
512	0	0	0	0	507	512
513	0	0	0	0	507	511
514	0	0	0	0	509	512
515	0	0	0	0	512	513
516	0	0	0	0	513	512
517	0	0	0	0	510	513
518	0	0	0	0	510	513
519	0	0	0	0	507	511
520	0	0	0	0	512	513
521	0	0	0	0	509	512
522	0	0	0	0	510	513
523	0	0	0	0	509	513
524	0	0	0	0	512	511
525	0	0	0	0	513	514
526	0	0	0	0	517	511
527	0	0	0	0	516	511
528	0	0	0	0	515	513
529	0	0	0	0	513	511
530	0	0	0	0	511	511
531	0	0	0	0	508	510
532	0	0	0	0	507	511
533	0	0	0	0	507	512
534	0	0	0	0	506	511
535	0	0	0	0	508	514
536	0	0	0	0	507	515
537	0	0	0	0	505	512
538	0	0	0	0	511	512
539	0	0	0	0	513	512
540	0	0	0	0	512	512
541	0	0	0	0	509	511
542	0	0	0	0	504	512
543	0	0	0	0	505	513
544	0	0	0	0	504	512
545	0	0	0	0	508	513
546	0	0	0	0	509	514
547	0	0	0	0	511	513
548	0	0	0	0	513	511
549	0	0	0	0	509	511
550	0	0	0	0	509	512
551	0	0	0	0	503	512
552	0	0	0	0	504	512
553	0	0	0	0	505	513
554	0	0	0	0	510	515
555	0	0	0	0	515	514
556	0	0	0	0	516	514
557	0	0	0	0	518	514
558	0	0	0	0	511	513
559	0	0	0	0	509	512
560	0	0	0	0	512	512
561	0	0	0	0	513	510
562	0	0	0	0	512	511
563	0	0	0	0	511	512
564	0	0	0	0	507	513
565	0	0	0	0	512	512
566	0	0	0	0	513	512
567	0	0	0	0	512	512
568	0	0	0	0	508	512
569	0	0	0	0	507	512
570	0	0	0	0	511	511
571	0	0	0	0	509	511
572	0	0	0	0	507	511
573	0	0	0	0	508	511
574	0	0	0	0	507	511
575	0	0	0	0	509	510
576	0	0	0	0	507	511
577	0	0	0	0	507	512
578	0	0	0	0	510	512
579	0	0	0	0	510	512
580	0	0	0	0	508	514
581	0	0	0	0	507	512
582	0	0	0	0	508	512
583	0	0	0	0	507	512
584	0	0	0	0	508	511
585	0	0	0	0	510	511
586	0	0	0	0	513	511
587	0	0	0	0	511	512
588	0	0	0	0	511	512
589	0	0	0	0	512	510
590	0	0	0	0	511	512
591	0	0	0	0	515	512
592	0	0	0	0	515	511
593	0	0	0	0	514	514
594	0	0	0	0	507	511
595	0	0	0	0	506	513
596	0	0	0	0	505	513
597	0	0	0	0	507	514
598	0	0	0	0	507	512
599	0	0	0	0	507	514
600	0	0	0	0	507	515
601	0	0	0	0	507	513
602	0	0	0	0	512	510
603	0	0	0	0	513	512
604	0	0	0	0	514	511
605	0	0	0	0	512	512
606	0	0	0	0	511	511
607	0	0	0	0	512	513
608	0	0	0	0	512	515
609	0	0	0	0	508	513
610	0	0	0	0	506	511
611	0	0	0	0	508	513
612	0	0	0	0	506	515
613	0	0	0	0	510	511
614	0	0	0	0	506	511
615	0	0	0	0	508	512
616	0	0	0	0	505	512
617	0	0	0	0	505	512
618	0	0	0	0	509	512
619	0	0	0	0	510	512
620	0	0	0	0	511	513
621	0	0	0	0	512	512
622	0	0	0	0	509	513
623	0	0	0	0	507	512
624	0	0	0	0	510	511
625	0	0	0	0	509	512
626	0	0	0	0	508	513
627	0	0	0	0	511	512
628	0	0	0	0	512	512
629	0	0	0	0	510	513
630	0	0	0	0	513	514
631	0	0	0	0	515	513
632	0	0	0	0	514	513
633	0	0	0	0	511	515
634	0	0	0	0	505	512
635	0	0	0	0	504	511
636	0	0	0	0	508	512
637	0	0	0	0	513	512
638	0	0	0	0	511	513
639	0	0	0	0	510	511
640	0	0	0	0	505	513
641	0	0	0	0	512	514
642	0	0	0	0	513	514
643	0	0	0	0	511	511
644	0	0	0	0	506	512
645	0	0	0	0	506	512
646	0	0	0	0	511	511
647	0	0	0	0	509	512
648	0	0	0	0	508	511
649	0	0	0	0	510	512
650	0	0	0	0	509	512
651	0	0	0	0	508	513
652	0	0	0	0	511	511
653	0	0	0	0	515	512
654	0	0	0	0	512	511
655	0	0	0	0	509	511
656	0	0	0	0	510	512
657	0	0	0	0	510	511
658	0	0	0	0	508	513
659	0	0	0	0	508	512
660	0	0	0	0	509	513
661	0	0	0	0	509	512
662	0	0	0	0	511	514
663	0	0	0	0	508	514
664	0	0	0	0	510	514
665	0	0	0	0	512	512
666	0	0	0	0	510	511
667	0	0	0	0	507	512
668	0	0	0	0	510	513
669	0	0	0	0	509	514
670	0	0	0	0	513	512
671	0	0	0	0	512	511
672	0	0	0	0	511	512
673	0	0	0	0	507	513
674	0	0	0	0	504	512
675	0	0	0	0	506	511
676	0	0	0	0	507	512
677	0	0	0	0	512	512
678	0	0	0	0	509	513
679	0	0	0	0	508	512
680	0	0	0	0	511	513
681	0	0	0	0	515	513
682	0	0	0	0	515	513
683	0	0	0	0	511	511
684	0	0	0	0	510	512
685	0	0	0	0	511	510
686	0	0	0	0	505	512
687	0	0	0	0	505	511
688	0	0	0	0	508	513
689	0	0	0	0	509	512
690	0	0	0	0	508	515
691	0	0	0	0	509	511
692	0	0	0	0	508	513
693	0	0	0	0	508	515
694	0	0	0	0	507	514
695	0	0	0	0	509	513
696	0	0	0	0	508	512
697	0	0	0	0	510	515
698	0	0	0	0	511	513
699	0	0	0	0	511	510
700	0	0	0	0	515	511
701	0	0	0	0	513	510
702	0	0	0	0	510	512
703	0	0	0	0	504	513
704	0	0	0	0	507	511
705	0	0	0	0	506	512
706	0	0	0	0	507	513
707	0	0	0	0	510	512
708	0	0	0	0	511	512
709	0	0	0	0	513	511
710	0	0	0	0	512	512
711	0	0	0	0	512	513
712	0	0	0	0	513	511
713	0	0	0	0	510	510
714	0	0	0	0	511	512
715	0	0	0	0	512	511
716	0	0	0	0	513	512
717	0	0	0	0	510	512
718	0	0	0	0	507	513
719	0	0	0	0	505	511
720	0	0	0	0	503	513
721	0	0	0	0	505	511
722	0	0	0	0	505	512
723	0	0	0	0	507	512
724	0	0	0	0	511	513
725	0	0	0	0	513	514
726	0	0	0	0	511	515
727	0	0	0	0	511	514
728	0	0	0	0	515	513
729	0	0	0	0	517	511
730	0	0	0	0	515	512
731	0	0	0	0	513	514
732	0	0	0	0	511	511
733	0	0	0	0	513	511
734	0	0	0	0	511	512
735	0	0	0	0	508	510
736	0	0	0	0	502	511
737	0	0	0	0	504	512
738	0	0	0	0	507	511
739	0	0	0	0	508	512
740	0	0	0	0	508	514
741	0	0	0	0	509	511
742	0	0	0	0	508	511
743	0	0	0	0	510	511
744	0	0	0	0	507	513
745	0	0	0	0	504	513
746	0	0	0	0	512	513
747	0	0	0	0	512	514
748	0	0	0	0	510	513
749	0	0	0	0	509	514
750	0	0	0	0	511	512
751	0	0	0	0	512	512
752	0	0	0	0	511	515
753	0	0	0	0	510	515
754	0	0	0	0	508	514
755	0	0	0	0	507	512
756	0	0	0	0	508	512
757	0	0	0	0	511	512
758	0	0	0	0	509	511
759	0	0	0	0	510	512
760	0	0	0	0	513	512
761	0	0	0	0	511	511
762	0	0	0	0	514	512
763	0	0	0	0	509	514
764	0	0	0	0	508	513
765	0	0	0	0	511	511
766	0	0	0	0	509	512
767	0	0	0	0	507	511
768	0	0	0	0	505	513
769	0	0	0	0	508	512
770	0	0	0	0	511	511
771	0	0	0	0	508	511
772	0	0	0	0	508	513
773	0	0	0	0	508	513
774	0	0	0	0	509	513
775	0	0	0	0	509	512
776	0	0	0	0	511	512
777	0	0	0	0	510	512
778	0	0	0	0	513	513
779	0	0	0	0	517	513
780	0	0	0	0	514	513
781	0	0	0	0	514	513
782	0	0	0	0	511	512
783	0	0	0	0	510	511
784	0	0	0	0	510	512
785	0	0	0	0	510	512
786	0	0	0	0	510	511
787	0	0	0	0	507	512
788	0	0	0	0	508	513
789	0	0	0	0	505	512
790	0	0	0	0	506	513
791	0	0	0	0	505	513
792	0	0	0	0	504	512
793	0	0	0	0	509	512
794	0	0	0	0	511	513
795	0	0	0	0	512	511
796	0	0	0	0	512	511
797	0	0	0	0	510	512
798	0	0	0	0	509	512
799	0	0	0	0	511	512
800	0	0	0	0	512	515
801	0	0	0	0	510	513
802	0	0	0	0	511	513
803	0	0	0	0	508	511
804	0	0	0	0	507	512
805	0	0	0	0	508	511
806	0	0	0	0	505	512
807	0	0	0	0	506	513
808	0	0	0	0	508	513
809	0	0	0	0	511	511
810	0	0	0	0	508	512
811	0	0	0	0	511	513
812	0	0	0	0	509	512
813	0	0	0	0	510	512
814	0	0	0	0	508	513
815	0	0	0	0	508	513
816	0	0	0	0	512	511
817	0	0	0	0	516	512
818	0	0	0	0	513	512
819	0	0	0	0	511	512
820	0	0	0	0	511	512
821	0	0	0	0	508	510
822	0	0	0	0	512	509
823	0	0	0	0	513	511
824	0	0	0	0	509	509
825	0	0	0	0	501	512
826	0	0	0	0	503	512
827	0	0	0	0	503	513
828	0	0	0	0	507	514
829	0	0	0	0	509	513
830	0	0	0	0	511	514
831	0	0	0	0	513	513
832	0	0	0	0	515	513
833	0	0	0	0	514	513
834	0	0	0	0	511	515
835	0	0	0	0	508	514
836	0	0	0	0	506	512
837	0	0	0	0	510	512
838	0	0	0	0	511	512
839	0	0	0	0	512	512
840	0	0	0	0	509	513
841	0	0	0	0	508	512
842	0	0	0	0	508	513
843	0	0	0	0	508	513
844	0	0	0	0	508	511
845	0	0	0	0	506	512
846	0	0	0	0	508	512
847	0	0	0	0	510	512
848	0	0	0	0	510	512
849	0	0	0	0	510	511
850	0	0	0	0	510	511
851	0	0	0	0	507	512
852	0	0	0	0	509	512
853	0	0	0	0	510	512
854	0	0	0	0	509	511
855	0	0	0	0	508	511
856	0	0	0	0	507	511
857	0	0	0	0	512	514
858	0	0	0	0	511	515
859	0	0	0	0	510	513
860	0	0	0	0	509	513
861	0	0	0	0	513	512
862	0	0	0	0	517	515
863	0	0	0	0	512	512
864	0	0	0	0	511	512
865	0	0	0	0	511	512
866	0	0	0	0	508	513
867	0	0	0	0	508	512
868	0	0	0	0	506	513
869	0	0	0	0	510	511
870	0	0	0	0	513	512
871	0	0	0	0	514	512
872	0	0	0	0	511	513
873	0	0	0	0	511	511
874	0	0	0	0	510	512
875	0	0	0	0	509	512
876	0	0	0	0	509	513
877	0	0	0	0	511	512
878	0	0	0	0	510	511
879	0	0	0	0	510	512
880	0	0	0	0	508	512
881	0	0	0	0	507	512
882	0	0	0	0	507	514
883	0	0	0	0	506	514
884	0	0	0	0	508	513
885	0	0	0	0	506	511
886	0	0	0	0	506	512
887	0	0	0	0	510	512
888	0	0	0	0	512	513
889	0	0	0	0	512	512
890	0	0	0	0	511	512
891	0	0	0	0	512	513
892	0	0	0	0	509	513
893	0	0	0	0	509	511
894	0	0	0	0	507	511
895	0	0	0	0	505	512
896	0	0	0	0	508	512
897	0	0	0	0	508	511
898	0	0	0	0	511	511
899	0	0	0	0	513	513
900	0	0	0	0	511	513
901	0	0	0	0	508	515
902	0	0	0	0	510	513
903	0	0	0	0	514	513
904	0	0	0	0	510	512
905	0	0	0	0	506	513
906	0	0	0	0	505	512
907	0	0	0	0	507	513
908	0	0	0	0	512	510
909	0	0	0	0	511	510
910	0	0	0	0	510	512
911	0	0	0	0	509	510
912	0	0	0	0	510	511
913	0	0	0	0	511	510
914	0	0	0	0	514	512
915	0	0	0	0	514	513
916	0	0	0	0	513	515
917	0	0	0	0	511	512
918	0	0	0	0	513	513
919	0	0	0	0	515	513
920	0	0	0	0	515	514
921	0	0	0	0	515	514
922	0	0	0	0	511	513
923	0	0	0	0	509	512
924	0	0	0	0	504	513
925	0	0	0	0	504	514
926	0	0	0	0	501	512
927	0	0	0	0	502	512
928	0	0	0	0	504	512
929	0	0	0	0	504	513
930	0	0	0	0	504	514
931	0	0	0	0	505	513
932	0	0	0	0	508	513
933	0	0	0	0	512	514
934	0	0	0	0	511	513
935	0	0	0	0	514	514
936	0	0	0	0	512	515
937	0	0	0	0	511	514
938	0	0	0	0	508	514
939	0	0	0	0	506	514
940	0	0	0	0	508	514
941	0	0	0	0	509	513
942	0	0	0	0	511	512
943	0	0	0	0	517	514
944	0	0	0	0	516	513
945	0	0	0	0	512	515
946	0	0	0	0	510	514
947	0	0	0	0	510	515
948	0	0	0	0	510	513
949	0	0	0	0	511	513
950	0	0	0	0	507	512
951	0	0	0	0	508	515
952	0	0	0	0	505	511
953	0	0	0	0	505	513
954	0	0	0	0	506	510
955	0	0	0	0	511	508
956	0	0	0	0	510	509
957	0	0	0	0	509	508
958	0	0	0	0	507	506
959	0	0	0	0	508	507
960	0	0	0	0	511	511
961	0	0	0	0	510	507
962	0	0	0	0	511	510
963	0	0	0	0	519	510
964	0	0	0	0	518	510
965	0	0	0	0	515	510
966	0	0	0	0	512	510
967	0	0	0	0	512	511
968	0	0	0	0	510	508
969	0	0	0	0	508	506
970	0	0	0	0	508	508
971	0	0	0	0	504	508
972	0	0	0	0	504	506
973	0	0	0	0	505	509
974	0	0	0	0	505	509
975	0	0	0	0	508	513
976	0	0	0	0	508	513
977	0	0	0	0	510	512
978	0	0	0	0	509	512
979	0	0	0	0	507	515
980	0	0	0	0	510	515
981	0	0	0	0	510	514
982	0	0	0	0	510	514
983	0	0	0	0	509	515
984	0	0	0	0	506	515
985	0	0	0	0	509	517
986	0	0	0	0	510	513
987	0	0	0	0	512	516
988	0	0	0	0	511	515
989	0	0	0	0	508	517
990	0	0	0	0	508	516
991	0	0	0	0	512	515
992	0	0	0	0	514	515
993	0	0	0	0	512	516
994	0	0	0	0	512	515
995	0	0	0	0	507	515
996	0	0	0	0	507	514
997	0	0	0	0	505	515
998	0	0	0	0	510	514
999	0	0	0	0	510	513
1000	0	0	0	0	511	515
1001	0	0	0	0	509	511
1002	0	0	0	0	508	511
1003	0	0	0	0	508	512
1004	0	0	0	0	505	511
1005	0	0	0	0	508	509
1006	0	0	0	0	506	512
1007	0	0	0	0	507	512
1008	0	0	0	0	505	513
1009	0	0	0	0	506	512
1010	0	0	0	0	508	512
1011	0	0	0	0	509	511
1012	0	0	0	0	506	510
1013	0	0	0	0	502	510
1014	0	0	0	0	503	511
1015	0	0	0	0	505	512
1016	0	0	0	0	505	512
1017	0	0	0	0	505	511
1018	0	0	0	0	507	510
1019	0	0	0	0	509	511
1020	0	0	0	0	507	511
1021	0	0	0	0	505	513
1022	0	0	0	0	505	512
1023	0	0	0	0	508	513
1024	0	0	0	0	512	513
1025	0	0	0	0	516	513
1026	0	0	0	0	518	514
1027	0	0	0	0	519	515
1028	0	0	0	0	520	514
1029	0	0	0	0	520	512
1030	0	0	0	0	519	512
1031	0	0	0	0	523	512
1032	0	0	0	0	521	512
1033	0	0	0	0	523	513
1034	0	0	0	0	521	509
1035	0	0	0	0	518	511
1036	0	0	0	0	516	513
1037	0	0	0	0	515	513
1038	0	0	0	0	514	512
1039	0	0	0	0	510	511
1040	0	0	0	0	505	511
1041	0	0	0	0	506	513
1042	0	0	0	0	505	512
1043	0	0	0	0	511	515
1044	0	0	0	0	511	513
1045	0	0	0	0	512	515
1046	0	0	0	0	508	514
1047	0	0	0	0	504	511
1048	0	0	0	0	504	512
1049	0	0	0	0	508	512
1050	0	0	0	0	512	512
1051	0	0	0	0	511	515
1052	0	0	0	0	509	515
1053	0	0	0	0	511	510
1054	0	0	0	0	515	511
1055	0	0	0	0	512	509
1056	0	0	0	0	505	510
1057	0	0	0	0	503	511
1058	0	0	0	0	502	511
1059	0	0	0	0	503	510
1060	0	0	0	0	503	512
1061	0	0	0	0	504	513
1062	0	0	0	0	501	513
1063	0	0	0	0	502	513
1064	0	0	0	0	508	512
1065	0	0	0	0	506	512
1066	0	0	0	0	507	513
1067	0	0	0	0	507	511
1068	0	0	0	0	508	515
1069	0	0	0	0	511	513
1070	0	0	0	0	514	513
1071	0	0	0	0	517	513
1072	0	0	0	0	515	513
1073	0	0	0	0	508	515
1074	0	0	0	0	508	514
1075	0	0	0	0	504	514
1076	0	0	0	0	503	513
1077	0	0	0	0	510	514
1078	0	0	0	0	518	511
1079	0	0	0	0	520	511
1080	0	0	0	0	514	510
1081	0	0	0	0	510	512
1082	0	0	0	0	508	511
1083	0	0	0	0	505	513
1084	0	0	0	0	505	511
1085	0	0	0	0	503	511
1086	0	0	0	0	506	511
1087	0	0	0	0	507	513
1088	0	0	0	0	510	513
1089	0	0	0	0	511	512
1090	0	0	0	0	511	511
1091	0	0	0	0	509	511
1092	0	0	0	0	508	511
1093	0	0	0	0	507	512
1094	0	0	0	0	506	512
1095	0	0	0	0	509	513
1096	0	0	0	0	509	513
1097	0	0	0	0	510	513
1098	0	0	0	0	512	512
1099	0	0	0	0	512	512
1100	0	0	0	0	513	512
1101	0	0	0	0	515	512
1102	0	0	0	0	512	511
1103	0	0	0	0	510	511
1104	0	0	0	0	509	510
1105	0	0	0	0	510	512
1106	0	0	0	0	508	515
1107	0	0	0	0	508	511
1108	0	0	0	0	508	512
1109	0	0	0	0	507	512
1110	0	0	0	0	507	514
1111	0	0	0	0	508	513
1112	0	0	0	0	510	512
1113	0	0	0	0	511	512
1114	0	0	0	0	512	513
1115	0	0	0	0	513	513
1116	0	0	0	0	512	515
1117	0	0	0	0	512	513
1118	0	0	0	0	510	513
1119	0	0	0	0	509	513
1120	0	0	0	0	510	511
1121	0	0	0	0	507	511
1122	0	0	0	0	508	510
1123	0	0	0	0	508	510
1124	0	0	0	0	508	514
1125	0	0	0	0	510	512
1126	0	0	0	0	509	509
1127	0	0	0	0	509	512
1128	0	0	0	0	507	511
1129	0	0	0	0	508	513
1130	0	0	0	0	512	515
1131	0	0	0	0	512	515
1132	0	0	0	0	516	513
1133	0	0	0	0	512	513
1134	0	0	0	0	510	514
1135	0	0	0	0	511	512
1136	0	0	0	0	509	509
1137	0	0	0	0	505	511
1138	0	0	0	0	507	514
1139	0	0	0	0	509	512
1140	0	0	0	0	509	512
1141	0	0	0	0	509	509
1142	0	0	0	0	511	509
1143	0	0	0	0	509	509
1144	0	0	0	0	504	511
1145	0	0	0	0	508	510
1146	0	0	0	0	508	511
1147	0	0	0	0	507	515
1148	0	0	0	0	510	513
1149	0	0	0	0	508	513
1150	0	0	0	0	512	511
1151	0	0	0	0	513	512
1152	0	0	0	0	512	512
1153	0	0	0	0	508	512
1154	0	0	0	0	511	513
1155	0	0	0	0	511	513
1156	0	0	0	0	512	511
1157	0	0	0	0	512	512
1158	0	0	0	0	511	512
1159	0	0	0	0	508	513
1160	0	0	0	0	511	511
1161	0	0	0	0	510	513
1162	0	0	0	0	508	513
1163	0	0	0	0	504	512
1164	0	0	0	0	505	513
1165	0	0	0	0	505	513
1166	0	0	0	0	506	514
1167	0	0	0	0	510	514
1168	0	0	0	0	510	515
1169	0	0	0	0	511	512
1170	0	0	0	0	512	512
1171	0	0	0	0	512	511
1172	0	0	0	0	514	511
1173	0	0	0	0	516	510
1174	0	0	0	0	512	512
1175	0	0	0	0	508	513
1176	0	0	0	0	506	513
1177	0	0	0	0	503	513
1178	0	0	0	0	504	511
1179	0	0	0	0	509	512
1180	0	0	0	0	515	513
1181	0	0	0	0	512	512
1182	0	0	0	0	509	510
1183	0	0	0	0	511	511
1184	0	0	0	0	515	512
1185	0	0	0	0	512	513
1186	0	0	0	0	512	512
1187	0	0	0	0	507	511
1188	0	0	0	0	508	511
1189	0	0	0	0	509	513
1190	0	0	0	0	510	512
1191	0	0	0	0	511	512
1192	0	0	0	0	510	512
1193	0	0	0	0	511	511
1194	0	0	0	0	508	513
1195	0	0	0	0	505	511
1196	0	0	0	0	506	513
1197	0	0	0	0	508	513
1198	0	0	0	0	511	513
1199	0	0	0	0	506	513
1200	0	0	0	0	509	510
1201	0	0	0	0	507	512
1202	0	0	0	0	508	509
1203	0	0	0	0	507	512
1204	0	0	0	0	508	512
1205	0	0	0	0	507	515
1206	0	0	0	0	511	513
1207	0	0	0	0	514	513
1208	0	0	0	0	512	513
1209	0	0	0	0	511	513
1210	0	0	0	0	512	513
1211	0	0	0	0	511	516
1212	0	0	0	0	511	512
1213	0	0	0	0	507	512
1214	0	0	0	0	508	514
1215	0	0	0	0	510	518
1216	0	0	0	0	511	515
1217	0	0	0	0	509	513
1218	0	0	0	0	512	510
1219	0	0	0	0	511	512
1220	0	0	0	0	509	513
1221	0	0	0	0	509	511
1222	0	0	0	0	508	510
1223	0	0	0	0	506	512
1224	0	0	0	0	506	512
1225	0	0	0	0	509	511
1226	0	0	0	0	512	512
1227	0	0	0	0	515	513
1228	0	0	0	0	515	513
1229	0	0	0	0	517	512
1230	0	0	0	0	515	510
1231	0	0	0	0	511	511
1232	0	0	0	0	508	513
1233	0	0	0	0	505	514
1234	0	0	0	0	507	512
1235	0	0	0	0	506	512
1236	0	0	0	0	506	513
1237	0	0	0	0	508	513
1238	0	0	0	0	507	512
1239	0	0	0	0	511	514
1240	0	0	0	0	511	513
1241	0	0	0	0	512	512
1242	0	0	0	0	514	512
1243	0	0	0	0	512	512
1244	0	0	0	0	509	511
1245	0	0	0	0	508	511
1246	0	0	0	0	508	512
1247	0	0	0	0	508	512
1248	0	0	0	0	507	514
1249	0	0	0	0	508	513
1250	0	0	0	0	512	512
1251	0	0	0	0	511	513
1252	0	0	0	0	509	512
1253	0	0	0	0	512	512
1254	0	0	0	0	514	512
1255	0	0	0	0	513	510
1256	0	0	0	0	515	512
1257	0	0	0	0	512	513
1258	0	0	0	0	514	512
1259	0	0	0	0	509	515
1260	0	0	0	0	508	512
1261	0	0	0	0	503	512
1262	0	0	0	0	506	513
1263	0	0	0	0	504	512
1264	0	0	0	0	504	511
1265	0	0	0	0	508	514
1266	0	0	0	0	508	512
1267	0	0	0	0	510	513
1268	0	0	0	0	507	513
1269	0	0	0	0	510	512
1270	0	0	0	0	512	513
1271	0	0	0	0	510	512
1272	0	0	0	0	508	511
1273	0	0	0	0	507	511
1274	0	0	0	0	513	509
1275	0	0	0	0	512	512
1276	0	0	0	0	514	511
1277	0	0	0	0	511	511
1278	0	0	0	0	513	516
1279	0	0	0	0	511	513
1280	0	0	0	0	507	511
1281	0	0	0	0	505	514
1282	0	0	0	0	504	515
1283	0	0	0	0	506	512
1284	0	0	0	0	508	511
1285	0	0	0	0	511	513
1286	0	0	0	0	512	513
1287	0	0	0	0	513	511
1288	0	0	0	0	513	511
1289	0	0	0	0	513	508
1290	0	0	0	0	512	511
1291	0	0	0	0	512	512
1292	0	0	0	0	512	514
1293	0	0	0	0	512	514
1294	0	0	0	0	511	513
1295	0	0	0	0	510	513
1296	0	0	0	0	507	513
1297	0	0	0	0	505	514
1298	0	0	0	0	504	515
1299	0	0	0	0	508	513
1300	0	0	0	0	511	513
1301	0	0	0	0	511	515
1302	0	0	0	0	508	512
1303	0	0	0	0	507	511
1304	0	0	0	0	506	511
1305	0	0	0	0	508	511
1306	0	0	0	0	507	510
1307	0	0	0	0	508	513
1308	0	0	0	0	510	512
1309	0	0	0	0	513	513
1310	0	0	0	0	512	512
1311	0	0	0	0	517	512
1312	0	0	0	0	513	512
1313	0	0	0	0	512	511
1314	0	0	0	0	505	511
1315	0	0	0	0	504	512
1316	0	0	0	0	502	513
1317	0	0	0	0	504	511
1318	0	0	0	0	507	515
1319	0	0	0	0	507	514
1320	0	0	0	0	508	511
1321	0	0	0	0	510	512
1322	0	0	0	0	512	511
1323	0	0	0	0	512	511
1324	0	0	0	0	511	511
1325	0	0	0	0	510	511
1326	0	0	0	0	511	512
1327	0	0	0	0	511	513
1328	0	0	0	0	511	512
1329	0	0	0	0	509	515
1330	0	0	0	0	509	514
1331	0	0	0	0	508	513
1332	0	0	0	0	507	512
1333	0	0	0	0	510	512
1334	0	0	0	0	510	511
1335	0	0	0	0	514	512
1336	0	0	0	0	518	513
1337	0	0	0	0	512	513
1338	0	0	0	0	509	514
1339	0	0	0	0	511	512
1340	0	0	0	0	513	515
1341	0	0	0	0	511	511
1342	0	0	0	0	506	513
1343	0	0	0	0	508	514
1344	0	0	0	0	508	512
1345	0	0	0	0	507	513
1346	0	0	0	0	505	511
1347	0	0	0	0	507	513
1348	0	0	0	0	506	514
1349	0	0	0	0	507	512
1350	0	0	0	0	508	512
1351	0	0	0	0	510	512
1352	0	0	0	0	511	512
1353	0	0	0	0	510	512
1354	0	0	0	0	507	510
1355	0	0	0	0	510	513
1356	0	0	0	0	511	514
1357	0	0	0	0	509	512
1358	0	0	0	0	512	514
1359	0	0	0	0	515	515
1360	0	0	0	0	515	516
1361	0	0	0	0	511	512
1362	0	0	0	0	509	514
1363	0	0	0	0	507	508
1364	0	0	0	0	508	510
1365	0	0	0	0	508	510
1366	0	0	0	0	511	510
1367	0	0	0	0	509	511
1368	0	0	0	0	511	511
1369	0	0	0	0	510	511
1370	0	0	0	0	508	515
1371	0	0	0	0	508	515
1372	0	0	0	0	508	514
1373	0	0	0	0	507	511
1374	0	0	0	0	508	512
1375	0	0	0	0	509	512
1376	0	0	0	0	507	510
1377	0	0	0	0	510	513
1378	0	0	0	0	508	511
1379	0	0	0	0	510	512
1380	0	0	0	0	510	514
1381	0	0	0	0	516	507
1382	0	0	0	0	515	511
1383	0	0	0	0	512	513
1384	0	0	0	0	511	512
1385	0	0	0	0	507	513
1386	0	0	0	0	510	512
1387	0	0	0	0	509	515
1388	0	0	0	0	508	512
1389	0	0	0	0	507	512
1390	0	0	0	0	505	512
1391	0	0	0	0	508	514
1392	0	0	0	0	509	512
1393	0	0	0	0	506	513
1394	0	0	0	0	507	515
1395	0	0	0	0	508	515
1396	0	0	0	0	509	514
1397	0	0	0	0	508	514
1398	0	0	0	0	509	514
1399	0	0	0	0	514	512
1400	0	0	0	0	519	512
1401	0	0	0	0	514	511
1402	0	0	0	0	511	510
1403	0	0	0	0	511	511
1404	0	0	0	0	512	515
1405	0	0	0	0	507	512
1406	0	0	0	0	508	512
1407	0	0	0	0	508	511
1408	0	0	0	0	510	512
1409	0	0	0	0	510	511
1410	0	0	0	0	507	512
1411	0	0	0	0	504	513
1412	0	0	0	0	507	512
1413	0	0	0	0	509	513
1414	0	0	0	0	509	513
1415	0	0	0	0	511	511
1416	0	0	0	0	511	509
1417	0	0	0	0	515	507
1418	0	0	0	0	515	512
1419	0	0	0	0	511	513
1420	0	0	0	0	508	513
1421	0	0	0	0	511	513
1422	0	0	0	0	509	511
1423	0	0	0	0	508	512
1424	0	0	0	0	507	512
1425	0	0	0	0	508	512
1426	0	0	0	0	511	512
1427	0	0	0	0	511	513
1428	0	0	0	0	510	513
1429	0	0	0	0	508	513
1430	0	0	0	0	509	513
1431	0	0	0	0	508	511
1432	0	0	0	0	507	512
1433	0	0	0	0	505	513
1434	0	0	0	0	505	514
1435	0	0	0	0	505	512
1436	0	0	0	0	511	508
1437	0	0	0	0	514	509
1438	0	0	0	0	511	511
1439	0	0	0	0	509	512
1440	0	0	0	0	510	512
1441	0	0	0	0	505	511
1442	0	0	0	0	507	512
1443	0	0	0	0	507	513
1444	0	0	0	0	510	513
1445	0	0	0	0	514	513
1446	0	0	0	0	517	513
1447	0	0	0	0	522	512
1448	0	0	0	0	521	512
1449	0	0	0	0	513	511
1450	0	0	0	0	509	513
1451	0	0	0	0	504	513
1452	0	0	0	0	505	512
1453	0	0	0	0	505	514
1454	0	0	0	0	508	512
1455	0	0	0	0	506	514
1456	0	0	0	0	506	513
1457	0	0	0	0	508	515
1458	0	0	0	0	505	513
1459	0	0	0	0	506	512
1460	0	0	0	0	509	510
1461	0	0	0	0	510	510
1462	0	0	0	0	508	512
1463	0	0	0	0	510	511
1464	0	0	0	0	508	513
1465	0	0	0	0	509	514
1466	0	0	0	0	508	511
1467	0	0	0	0	509	511
1468	0	0	0	0	510	510
1469	0	0	0	0	508	511
1470	0	0	0	0	510	512
1471	0	0	0	0	511	511
1472	0	0	0	0	512	513
1473	0	0	0	0	514	511
1474	0	0	0	0	515	514
1475	0	0	0	0	517	513
1476	0	0	0	0	514	511
1477	0	0	0	0	513	511
1478	0	0	0	0	507	512
1479	0	0	0	0	509	512
1480	0	0	0	0	509	511
1481	0	0	0	0	508	512
1482	0	0	0	0	509	515
1483	0	0	0	0	507	514
1484	0	0	0	0	505	512
1485	0	0	0	0	504	511
1486	0	0	0	0	505	512
1487	0	0	0	0	507	512
1488	0	0	0	0	509	510
1489	0	0	0	0	512	509
1490	0	0	0	0	512	512
1491	0	0	0	0	511	514
1492	0	0	0	0	513	511
1493	0	0	0	0	512	511
1494	0	0	0	0	509	514
1495	0	0	0	0	508	515
1496	0	0	0	0	512	512
1497	0	0	0	0	512	512
1498	0	0	0	0	512	513
1499	0	0	0	0	508	511
1500	0	0	0	0	510	513
1501	0	0	0	0	512	511
1502	0	0	0	0	510	512
1503	0	0	0	0	505	512
1504	0	0	0	0	509	513
1505	0	0	0	0	505	513
1506	0	0	0	0	502	515
1507	0	0	0	0	500	515
1508	0	0	0	0	508	513
1509	0	0	0	0	510	512
1510	0	0	0	0	510	514
1511	0	0	0	0	514	511
1512	0	0	0	0	519	511
1513	0	0	0	0	522	508
1514	0	0	0	0	522	510
1515	0	0	0	0	511	511
1516	0	0	0	0	502	511
1517	0	0	0	0	498	512
1518	0	0	0	0	506	513
1519	0	0	0	0	506	512
1520	0	0	0	0	504	510
1521	0	0	0	0	505	514
1522	0	0	0	0	510	515
1523	0	0	0	0	512	512
1524	0	0	0	0	511	511
1525	0	0	0	0	511	512
1526	0	0	0	0	511	512
1527	0	0	0	0	510	513
1528	0	0	0	0	512	515
1529	0	0	0	0	512	513
1530	0	0	0	0	510	511
1531	0	0	0	0	507	510
1532	0	0	0	0	506	511
1533	0	0	0	0	508	512
1534	0	0	0	0	512	513
1535	0	0	0	0	512	514
1536	0	0	0	0	512	512
1537	0	0	0	0	507	515
1538	0	0	0	0	510	515
1539	0	0	0	0	515	512
1540	0	0	0	0	517	513
1541	0	0	0	0	511	513
1542	0	0	0	0	506	513
1543	0	0	0	0	503	511
1544	0	0	0	0	504	513
1545	0	0	0	0	504	509
1546	0	0	0	0	500	513
1547	0	0	0	0	508	512
1548	0	0	0	0	512	511
1549	0	0	0	0	511	512
1550	0	0	0	0	511	512
1551	0	0	0	0	509	515
1552	0	0	0	0	512	513
1553	0	0	0	0	512	510
1554	0	0	0	0	510	511
1555	0	0	0	0	511	512
1556	0	0	0	0	511	511
1557	0	0	0	0	510	512
1558	0	0	0	0	510	512
1559	0	0	0	0	508	513
1560	0	0	0	0	510	515
1561	0	0	0	0	510	515
1562	0	0	0	0	509	511
1563	0	0	0	0	508	512
1564	0	0	0	0	510	513
1565	0	0	0	0	511	511
1566	0	0	0	0	510	511
1567	0	0	0	0	509	511
1568	0	0	0	0	507	511
1569	0	0	0	0	508	511
1570	0	0	0	0	507	511
1571	0	0	0	0	507	512
1572	0	0	0	0	507	512
1573	0	0	0	0	508	513
1574	0	0	0	0	507	514
1575	0	0	0	0	513	515
1576	0	0	0	0	518	511
1577	0	0	0	0	516	513
1578	0	0	0	0	517	516
1579	0	0	0	0	513	513
1580	0	0	0	0	508	512
1581	0	0	0	0	504	511
1582	0	0	0	0	504	511
1583	0	0	0	0	503	511
1584	0	0	0	0	505	513
1585	0	0	0	0	511	512
1586	0	0	0	0	512	513
1587	0	0	0	0	515	511
1588	0	0	0	0	518	516
1589	0	0	0	0	515	514
1590	0	0	0	0	512	512
1591	0	0	0	0	506	511
1592	0	0	0	0	507	512
1593	0	0	0	0	505	513
1594	0	0	0	0	502	510
1595	0	0	0	0	504	510
1596	0	0	0	0	507	510
1597	0	0	0	0	508	511
1598	0	0	0	0	511	512
1599	0	0	0	0	511	512
1600	0	0	0	0	510	514
1601	0	0	0	0	514	514
1602	0	0	0	0	513	515
1603	0	0	0	0	511	515
1604	0	0	0	0	510	512
1605	0	0	0	0	510	508
1606	0	0	0	0	509	510
1607	0	0	0	0	509	508
1608	0	0	0	0	511	510
1609	0	0	0	0	507	512
1610	0	0	0	0	507	514
1611	0	0	0	0	507	513
1612	0	0	0	0	511	512
1613	0	0	0	0	516	512
1614	0	0	0	0	514	511
1615	0	0	0	0	510	513
1616	0	0	0	0	509	513
1617	0	0	0	0	508	514
1618	0	0	0	0	508	512
1619	0	0	0	0	508	510
1620	0	0	0	0	511	511
1621	0	0	0	0	510	511
1622	0	0	0	0	509	511
1623	0	0	0	0	509	513
1624	0	0	0	0	508	516
1625	0	0	0	0	508	513
1626	0	0	0	0	507	512
1627	0	0	0	0	510	510
1628	0	0	0	0	510	512
1629	0	0	0	0	505	509
1630	0	0	0	0	509	515
1631	0	0	0	0	508	515
1632	0	0	0	0	511	512
1633	0	0	0	0	513	512
1634	0	0	0	0	511	513
1635	0	0	0	0	509	511
1636	0	0	0	0	508	513
1637	0	0	0	0	511	512
1638	0	0	0	0	512	513
1639	0	0	0	0	515	513
1640	0	0	0	0	514	513
1641	0	0	0	0	512	513
1642	0	0	0	0	509	512
1643	0	0	0	0	508	511
1644	0	0	0	0	512	511
1645	0	0	0	0	511	511
1646	0	0	0	0	510	512
1647	0	0	0	0	506	512
1648	0	0	0	0	506	513
1649	0	0	0	0	507	510
1650	0	0	0	0	509	511
1651	0	0	0	0	510	512
1652	0	0	0	0	508	512
1653	0	0	0	0	510	513
1654	0	0	0	0	508	514
1655	0	0	0	0	510	515
1656	0	0	0	0	511	513
1657	0	0	0	0	511	517
1658	0	0	0	0	510	512
1659	0	0	0	0	507	514
1660	0	0	0	0	509	515
1661	0	0	0	0	508	515
1662	0	0	0	0	510	513
1663	0	0	0	0	508	514
1664	0	0	0	0	509	515
1665	0	0	0	0	511	515
1666	0	0	0	0	510	512
1667	0	0	0	0	512	510
1668	0	0	0	0	508	511
1669	0	0	0	0	511	512
1670	0	0	0	0	511	512
1671	0	0	0	0	511	510
1672	0	0	0	0	512	513
1673	0	0	0	0	510	515
1674	0	0	0	0	510	515
1675	0	0	0	0	512	512
1676	0	0	0	0	510	513
1677	0	0	0	0	511	512
1678	0	0	0	0	512	511
1679	0	0	0	0	511	508
1680	0	0	0	0	511	510
1681	0	0	0	0	510	512
1682	0	0	0	0	507	508
1683	0	0	0	0	509	508
1684	0	0	0	0	509	510
1685	0	0	0	0	506	506
1686	0	0	0	0	507	509
1687	0	0	0	0	508	507
1688	0	0	0	0	508	507
1689	0	0	0	0	506	510
1690	0	0	0	0	509	509
1691	0	0	0	0	512	509
1692	0	0	0	0	511	509
1693	0	0	0	0	512	508
1694	0	0	0	0	514	508
1695	0	0	0	0	512	511
1696	0	0	0	0	509	511
1697	0	0	0	0	507	510
1698	0	0	0	0	507	512
1699	0	0	0	0	506	515
1700	0	0	0	0	508	513
1701	0	0	0	0	507	513
1702	0	0	0	0	508	516
1703	0	0	0	0	510	512
1704	0	0	0	0	512	515
1705	0	0	0	0	508	513
1706	0	0	0	0	508	512
1707	0	0	0	0	509	513
1708	0	0	0	0	506	515
1709	0	0	0	0	510	514
1710	0	0	0	0	512	513
1711	0	0	0	0	510	512
1712	0	0	0	0	509	514
1713	0	0	0	0	512	514
1714	0	0	0	0	513	515
1715	0	0	0	0	512	513
1716	0	0	0	0	509	514
1717	0	0	0	0	510	513
1718	0	0	0	0	515	513
1719	0	0	0	0	515	511
1720	0	0	0	0	515	512
1721	0	0	0	0	514	513
1722	0	0	0	0	509	513
1723	0	0	0	0	506	513
1724	0	0	0	0	505	513
1725	0	0	0	0	503	515
1726	0	0	0	0	507	514
1727	0	0	0	0	508	512
1728	0	0	0	0	507	512
1729	0	0	0	0	510	512
1730	0	0	0	0	511	515
1731	0	0	0	0	511	516
1732	0	0	0	0	511	516
1733	0	0	0	0	509	512
1734	0	0	0	0	506	510
1735	0	0	0	0	504	509
1736	0	0	0	0	503	510
1737	0	0	0	0	501	512
1738	0	0	0	0	500	515
1739	0	0	0	0	503	513
1740	0	0	0	0	504	510
1741	0	0	0	0	506	510
1742	0	0	0	0	504	512
1743	0	0	0	0	504	512
1744	0	0	0	0	507	513
1745	0	0	0	0	505	512
1746	0	0	0	0	508	513
1747	0	0	0	0	506	513
1748	0	0	0	0	508	515
1749	0	0	0	0	509	511
1750	0	0	0	0	512	515
1751	0	0	0	0	513	512
1752	0	0	0	0	516	508
1753	0	0	0	0	516	509
1754	0	0	0	0	515	511
1755	0	0	0	0	516	513
1756	0	0	0	0	513	512
1757	0	0	0	0	516	514
1758	0	0	0	0	518	512
1759	0	0	0	0	518	512
1760	0	0	0	0	515	510
1761	0	0	0	0	516	510
1762	0	0	0	0	516	514
1763	0	0	0	0	526	514
1764	0	0	0	0	526	512
1765	0	0	0	0	524	513
1766	0	0	0	0	517	514
1767	0	0	0	0	512	512
1768	0	0	0	0	510	515
1769	0	0	0	0	508	512
1770	0	0	0	0	511	514
1771	0	0	0	0	509	512
1772	0	0	0	0	511	514
1773	0	0	0	0	510	515
1774	0	0	0	0	508	515
1775	0	0	0	0	508	514
1776	0	0	0	0	508	510
1777	0	0	0	0	508	508
1778	0	0	0	0	508	507
1779	0	0	0	0	505	508
1780	0	0	0	0	510	511
1781	0	0	0	0	507	512
1782	0	0	0	0	506	513
1783	0	0	0	0	504	512
1784	0	0	0	0	503	512
1785	0	0	0	0	504	511
1786	0	0	0	0	502	512
1787	0	0	0	0	504	514
1788	0	0	0	0	504	512
1789	0	0	0	0	505	512
1790	0	0	0	0	508	514
1791	0	0	0	0	506	512
1792	0	0	0	0	508	511
1793	0	0	0	0	507	513
1794	0	0	0	0	505	515
1795	0	0	0	0	507	513
1796	0	0	0	0	509	515
1797	0	0	0	0	510	513
1798	0	0	0	0	509	514
1799	0	0	0	0	509	512
1800	0	0	0	0	512	513
1801	0	0	0	0	511	515
1802	0	0	0	0	509	513
1803	0	0	0	0	508	513
1804	0	0	0	0	504	513
1805	0	0	0	0	507	510
1806	0	0	0	0	509	511
1807	0	0	0	0	509	513
1808	0	0	0	0	510	512
1809	0	0	0	0	510	512
1810	0	0	0	0	511	512
1811	0	0	0	0	515	511
1812	0	0	0	0	518	513
1813	0	0	0	0	512	514
1814	0	0	0	0	510	513
1815	0	0	0	0	511	514
1816	0	0	0	0	509	513
1817	0	0	0	0	507	513
1818	0	0	0	0	507	512
1819	0	0	0	0	510	512
1820	0	0	0	0	510	513
1821	0	0	0	0	512	510
1822	0	0	0	0	506	510
1823	0	0	0	0	508	512
1824	0	0	0	0	507	513
1825	0	0	0	0	507	515
1826	0	0	0	0	504	512
1827	0	0	0	0	506	513
1828	0	0	0	0	513	508
1829	0	0	0	0	512	511
1830	0	0	0	0	510	513
1831	0	0	0	0	511	513
1832	0	0	0	0	513	513
1833	0	0	0	0	511	512
1834	0	0	0	0	514	510
1835	0	0	0	0	514	512
1836	0	0	0	0	513	510
1837	0	0	0	0	513	513
1838	0	0	0	0	512	511
1839	0	0	0	0	510	511
1840	0	0	0	0	505	514
1841	0	0	0	0	499	515
1842	0	0	0	0	500	515
1843	0	0	0	0	511	513
1844	0	0	0	0	518	511
1845	0	0	0	0	515	513
1846	0	0	0	0	511	512
1847	0	0	0	0	505	516
1848	0	0	0	0	507	511
1849	0	0	0	0	506	510
1850	0	0	0	0	505	510
1851	0	0	0	0	507	512
1852	0	0	0	0	512	513
1853	0	0	0	0	510	514
1854	0	0	0	0	508	511
1855	0	0	0	0	512	513
1856	0	0	0	0	512	515
1857	0	0	0	0	511	515
1858	0	0	0	0	508	511
1859	0	0	0	0	505	510
1860	0	0	0	0	508	514
1861	0	0	0	0	507	512
1862	0	0	0	0	509	512
1863	0	0	0	0	512	512
1864	0	0	0	0	514	512
1865	0	0	0	0	521	511
1866	0	0	0	0	523	511
1867	0	0	0	0	513	512
1868	0	0	0	0	505	513
1869	0	0	0	0	505	512
1870	0	0	0	0	505	510
1871	0	0	0	0	507	510
1872	0	0	0	0	504	513
1873	0	0	0	0	504	512
1874	0	0	0	0	505	511
1875	0	0	0	0	507	511
1876	0	0	0	0	509	511
1877	0	0	0	0	511	513
1878	0	0	0	0	511	513
1879	0	0	0	0	513	513
1880	0	0	0	0	510	512
1881	0	0	0	0	508	512
1882	0	0	0	0	511	511
1883	0	0	0	0	508	511
1884	0	0	0	0	509	511
1885	0	0	0	0	511	511
1886	0	0	0	0	513	512
1887	0	0	0	0	511	512
1888	0	0	0	0	509	512
1889	0	0	0	0	510	512
1890	0	0	0	0	510	512
1891	0	0	0	0	509	512
1892	0	0	0	0	508	515
1893	0	0	0	0	507	513
1894	0	0	0	0	508	516
1895	0	0	0	0	509	518
1896	0	0	0	0	509	514
1897	0	0	0	0	512	511
1898	0	0	0	0	516	512
1899	0	0	0	0	514	512
1900	0	0	0	0	512	512
1901	0	0	0	0	510	508
1902	0	0	0	0	510	510
1903	0	0	0	0	510	511
1904	0	0	0	0	505	508
1905	0	0	0	0	510	510
1906	0	0	0	0	508	512
1907	0	0	0	0	508	515
1908	0	0	0	0	507	513
1909	0	0	0	0	508	512
1910	0	0	0	0	508	513
1911	0	0	0	0	509	513
1912	0	0	0	0	511	513
1913	0	0	0	0	511	513
1914	0	0	0	0	511	513
1915	0	0	0	0	513	512
1916	0	0	0	0	512	515
1917	0	0	0	0	511	516
1918	0	0	0	0	508	515
1919	0	0	0	0	504	512
1920	0	0	0	0	507	510
1921	0	0	0	0	512	508
1922	0	0	0	0	510	509
1923	0	0	0	0	512	513
1924	0	0	0	0	510	510
1925	0	0	0	0	511	514
1926	0	0	0	0	510	514
1927	0	0	0	0	508	512
1928	0	0	0	0	509	512
1929	0	0	0	0	508	512
1930	0	0	0	0	507	512
1931	0	0	0	0	505	515
1932	0	0	0	0	509	512
1933	0	0	0	0	510	511
1934	0	0	0	0	508	511
1935	0	0	0	0	508	512
1936	0	0	0	0	507	512
1937	0	0	0	0	508	511
1938	0	0	0	0	508	511
1939	0	0	0	0	509	512
1940	0	0	0	0	508	514
1941	0	0	0	0	509	513
1942	0	0	0	0	508	511
1943	0	0	0	0	510	513
1944	0	0	0	0	515	513
1945	0	0	0	0	524	516
1946	0	0	0	0	523	512
1947	0	0	0	0	519	514
1948	0	0	0	0	518	513
1949	0	0	0	0	515	515
1950	0	0	0	0	511	511
1951	0	0	0	0	503	511
1952	0	0	0	0	503	510
1953	0	0	0	0	500	509
1954	0	0	0	0	499	510
1955	0	0	0	0	503	511
1956	0	0	0	0	506	512
1957	0	0	0	0	508	511
1958	0	0	0	0	506	511
1959	0	0	0	0	505	513
1960	0	0	0	0	508	512
1961	0	0	0	0	510	511
1962	0	0	0	0	511	513
1963	0	0	0	0	513	514
1964	0	0	0	0	512	516
1965	0	0	0	0	510	515
1966	0	0	0	0	509	511
1967	0	0	0	0	510	510
1968	0	0	0	0	508	512
1969	0	0	0	0	505	508
1970	0	0	0	0	505	511
1971	0	0	0	0	508	513
1972	0	0	0	0	513	512
1973	0	0	0	0	515	513
1974	0	0	0	0	520	513
1975	0	0	0	0	519	512
1976	0	0	0	0	521	512
1977	0	0	0	0	515	512
1978	0	0	0	0	508	512
1979	0	0	0	0	505	512
1980	0	0	0	0	509	513
1981	0	0	0	0	512	512
1982	0	0	0	0	511	513
1983	0	0	0	0	513	517
1984	0	0	0	0	508	516
1985	0	0	0	0	508	513
1986	0	0	0	0	508	513
1987	0	0	0	0	505	511
1988	0	0	0	0	508	513
1989	0	0	0	0	510	515
1990	0	0	0	0	508	510
1991	0	0	0	0	507	512
1992	0	0	0	0	507	510
1993	0	0	0	0	504	511
1994	0	0	0	0	506	511
1995	0	0	0	0	508	510
1996	0	0	0	0	508	510
1997	0	0	0	0	511	512
1998	0	0	0	0	509	513
1999	0	0	0	0	507	512
2000	0	0	0	0	507	513
2001	0	0	0	0	507	512
2002	0	0	0	0	510	514
2003	0	0	0	0	506	512
2004	0	0	0	0	505	510
2005	0	0	0	0	508	513
2006	0	0	0	0	512	512
2007	0	0	0	0	513	515
2008	0	0	0	0	513	516
2009	0	0	0	0	517	512
2010	0	0	0	0	516	513
2011	0	0	0	0	515	513
2012	0	0	0	0	512	515
2013	0	0	0	0	512	511
2014	0	0	0	0	511	512
2015	0	0	0	0	510	513
2016	0	0	0	0	505	512
2017	0	0	0	0	503	511
2018	0	0	0	0	507	513
2019	0	0	0	0	510	511
2020	0	0	0	0	508	512
2021	0	0	0	0	508	510
2022	0	0	0	0	511	511
2023	0	0	0	0	508	513
2024	0	0	0	0	511	510
2025	0	0	0	0	511	511
2026	0	0	0	0	507	513
2027	0	0	0	0	504	513
2028	0	0	0	0	506	514
2029	0	0	0	0	507	513
2030	0	0	0	0	506	512
2031	0	0	0	0	506	511
2032	0	0	0	0	509	513
2033	0	0	0	0	515	515
2034	0	0	0	0	518	513
2035	0	0	0	0	518	513
2036	0	0	0	0	513	511
2037	0	0	0	0	510	512
2038	0	0	0	0	513	514
2039	0	0	0	0	515	511
2040	0	0	0	0	510	513
2041	0	0	0	0	507	508
2042	0	0	0	0	510	511
2043	0	0	0	0	509	515
2044	0	0	0	0	507	512
2045	0	0	0	0	507	513
2046	0	0	0	0	505	514
2047	0	0	0	0	505	515
2048	0	0	0	0	505	512
2049	0	0	0	0	509	512
2050	0	0	0	0	510	512
2051	0	0	0	0	513	513
2052	0	0	0	0	507	512
2053	0	0	0	0	508	512
2054	0	0	0	0	507	514
2055	0	0	0	0	508	510
2056	0	0	0	0	511	507
2057	0	0	0	0	511	511
2058	0	0	0	0	510	512
2059	0	0	0	0	508	513
2060	0	0	0	0	505	512
2061	0	0	0	0	507	515
2062	0	0	0	0	513	513
2063	0	0	0	0	512	511
2064	0	0	0	0	514	511
2065	0	0	0	0	512	512
2066	0	0	0	0	512	513
2067	0	0	0	0	512	513
2068	0	0	0	0	514	514
2069	0	0	0	0	511	511
2070	0	0	0	0	510	515
2071	0	0	0	0	508	512
2072	0	0	0	0	509	515
2073	0	0	0	0	509	509
2074	0	0	0	0	508	505
2075	0	0	0	0	508	510
2076	0	0	0	0	507	513
2077	0	0	0	0	508	514
2078	0	0	0	0	507	515
2079	0	0	0	0	507	513
2080	0	0	0	0	508	515
2081	0	0	0	0	508	517
2082	0	0	0	0	512	516
2083	0	0	0	0	511	512
2084	0	0	0	0	509	512
2085	0	0	0	0	509	512
2086	0	0	0	0	513	514
2087	0	0	0	0	515	511
2088	0	0	0	0	512	510
2089	0	0	0	0	507	510
2090	0	0	0	0	504	510
2091	0	0	0	0	504	512
2092	0	0	0	0	506	511
2093	0	0	0	0	507	514
2094	0	0	0	0	509	513
2095	0	0	0	0	508	512
2096	0	0	0	0	507	512
2097	0	0	0	0	507	516
2098	0	0	0	0	510	515
2099	0	0	0	0	510	511
2100	0	0	0	0	511	511
2101	0	0	0	0	511	511
2102	0	0	0	0	513	510
2103	0	0	0	0	513	510
2104	0	0	0	0	513	509
2105	0	0	0	0	512	510
2106	0	0	0	0	508	513
2107	0	0	0	0	504	512
2108	0	0	0	0	502	512
2109	0	0	0	0	505	513
2110	0	0	0	0	511	513
2111	0	0	0	0	516	514
2112	0	0	0	0	515	512
2113	0	0	0	0	512	514
2114	0	0	0	0	513	515
2115	0	0	0	0	513	512
2116	0	0	0	0	515	513
2117	0	0	0	0	513	513
2118	0	0	0	0	510	511
2119	0	0	0	0	508	511
2120	0	0	0	0	507	514
2121	0	0	0	0	508	513
2122	0	0	0	0	511	516
2123	0	0	0	0	514	514
2124	0	0	0	0	511	513
2125	0	0	0	0	511	511
2126	0	0	0	0	511	512
2127	0	0	0	0	515	512
2128	0	0	0	0	509	517
2129	0	0	0	0	504	512
2130	0	0	0	0	502	504
2131	0	0	0	0	504	510
2132	0	0	0	0	505	512
2133	0	0	0	0	507	512
2134	0	0	0	0	511	511
2135	0	0	0	0	511	511
2136	0	0	0	0	508	510
2137	0	0	0	0	509	510
2138	0	0	0	0	511	514
2139	0	0	0	0	509	512
2140	0	0	0	0	510	514
2141	0	0	0	0	510	511
2142	0	0	0	0	508	512
2143	0	0	0	0	509	513
2144	0	0	0	0	508	514
2145	0	0	0	0	508	516
2146	0	0	0	0	511	519
2147	0	0	0	0	515	516
2148	0	0	0	0	515	510
2149	0	0	0	0	509	509
2150	0	0	0	0	512	509
2151	0	0	0	0	510	512
2152	0	0	0	0	508	513
2153	0	0	0	0	510	512
2154	0	0	0	0	509	513
2155	0	0	0	0	510	513
2156	0	0	0	0	506	513
2157	0	0	0	0	507	512
2158	0	0	0	0	510	510
2159	0	0	0	0	510	512
2160	0	0	0	0	510	512
2161	0	0	0	0	508	512
2162	0	0	0	0	508	513
2163	0	0	0	0	510	511
2164	0	0	0	0	510	513
2165	0	0	0	0	509	512
2166	0	0	0	0	514	514
2167	0	0	0	0	512	512
2168	0	0	0	0	511	513
2169	0	0	0	0	508	511
2170	0	0	0	0	509	515
2171	0	0	0	0	512	512
2172	0	0	0	0	511	512
2173	0	0	0	0	507	513
2174	0	0	0	0	506	513
2175	0	0	0	0	507	515
2176	0	0	0	0	507	513
2177	0	0	0	0	509	513
2178	0	0	0	0	508	515
2179	0	0	0	0	510	509
2180	0	0	0	0	507	511
2181	0	0	0	0	507	512
2182	0	0	0	0	510	512
2183	0	0	0	0	510	512
2184	0	0	0	0	508	508
2185	0	0	0	0	512	511
2186	0	0	0	0	513	513
2187	0	0	0	0	518	510
2188	0	0	0	0	515	510
2189	0	0	0	0	512	511
2190	0	0	0	0	511	512
2191	0	0	0	0	510	513
2192	0	0	0	0	505	514
2193	0	0	0	0	505	515
2194	0	0	0	0	505	515
2195	0	0	0	0	507	512
2196	0	0	0	0	508	512
2197	0	0	0	0	511	514
2198	0	0	0	0	515	516
2199	0	0	0	0	514	512
2200	0	0	0	0	510	511
2201	0	0	0	0	507	510
2202	0	0	0	0	509	511
2203	0	0	0	0	505	512
2204	0	0	0	0	507	510
2205	0	0	0	0	506	513
2206	0	0	0	0	508	512
2207	0	0	0	0	510	512
2208	0	0	0	0	509	512
2209	0	0	0	0	510	512
2210	0	0	0	0	510	512
2211	0	0	0	0	512	512
2212	0	0	0	0	513	512
2213	0	0	0	0	515	511
2214	0	0	0	0	515	511
2215	0	0	0	0	513	512
2216	0	0	0	0	510	511
2217	0	0	0	0	508	513
2218	0	0	0	0	511	511
2219	0	0	0	0	512	513
2220	0	0	0	0	513	514
2221	0	0	0	0	511	515
2222	0	0	0	0	505	513
2223	0	0	0	0	505	515
2224	0	0	0	0	505	512
2225	0	0	0	0	507	508
2226	0	0	0	0	504	512
2227	0	0	0	0	503	511
2228	0	0	0	0	505	507
2229	0	0	0	0	505	510
2230	0	0	0	0	512	511
2231	0	0	0	0	512	512
2232	0	0	0	0	512	515
2233	0	0	0	0	513	514
2234	0	0	0	0	510	513
2235	0	0	0	0	512	511
2236	0	0	0	0	514	511
2237	0	0	0	0	512	512
2238	0	0	0	0	512	514
2239	0	0	0	0	509	515
2240	0	0	0	0	505	515
2241	0	0	0	0	507	512
2242	0	0	0	0	510	513
2243	0	0	0	0	509	514
2244	0	0	0	0	508	511
2245	0	0	0	0	508	512
2246	0	0	0	0	510	514
2247	0	0	0	0	510	512
2248	0	0	0	0	509	511
2249	0	0	0	0	508	513
2250	0	0	0	0	508	513
2251	0	0	0	0	510	511
2252	0	0	0	0	509	512
2253	0	0	0	0	509	511
2254	0	0	0	0	508	512
2255	0	0	0	0	509	514
2256	0	0	0	0	507	515
2257	0	0	0	0	507	515
2258	0	0	0	0	512	515
2259	0	0	0	0	508	512
2260	0	0	0	0	506	509
2261	0	0	0	0	505	511
2262	0	0	0	0	509	511
2263	0	0	0	0	513	512
2264	0	0	0	0	514	511
2265	0	0	0	0	512	508
2266	0	0	0	0	511	511
2267	0	0	0	0	511	511
2268	0	0	0	0	512	512
2269	0	0	0	0	510	515
2270	0	0	0	0	511	513
2271	0	0	0	0	511	513
2272	0	0	0	0	512	516
2273	0	0	0	0	511	513
2274	0	0	0	0	512	512
2275	0	0	0	0	511	512
2276	0	0	0	0	508	513
2277	0	0	0	0	508	514
2278	0	0	0	0	507	511
2279	0	0	0	0	508	511
2280	0	0	0	0	509	511
2281	0	0	0	0	510	513
2282	0	0	0	0	508	513
2283	0	0	0	0	510	512
2284	0	0	0	0	507	511
2285	0	0	0	0	508	512
2286	0	0	0	0	509	511
2287	0	0	0	0	510	512
2288	0	0	0	0	511	513
2289	0	0	0	0	509	512
2290	0	0	0	0	510	511
2291	0	0	0	0	512	511
2292	0	0	0	0	513	512
2293	0	0	0	0	512	512
2294	0	0	0	0	510	512
2295	0	0	0	0	513	515
2296	0	0	0	0	509	514
2297	0	0	0	0	508	511
2298	0	0	0	0	508	511
2299	0	0	0	0	509	512
2300	0	0	0	0	507	512
2301	0	0	0	0	504	512
2302	0	0	0	0	505	512
2303	0	0	0	0	510	515
2304	0	0	0	0	511	511
2305	0	0	0	0	512	512
2306	0	0	0	0	506	515
2307	0	0	0	0	505	511
2308	0	0	0	0	507	514
2309	0	0	0	0	507	512
2310	0	0	0	0	510	512
2311	0	0	0	0	509	510
2312	0	0	0	0	511	510
2313	0	0	0	0	512	512
2314	0	0	0	0	512	511
2315	0	0	0	0	511	514
2316	0	0	0	0	509	513
2317	0	0	0	0	508	516
2318	0	0	0	0	509	512
2319	0	0	0	0	511	511
2320	0	0	0	0	508	514
2321	0	0	0	0	508	513
2322	0	0	0	0	507	512
2323	0	0	0	0	511	512
2324	0	0	0	0	513	511
2325	0	0	0	0	513	516
2326	0	0	0	0	510	515
2327	0	0	0	0	511	513
2328	0	0	0	0	511	512
2329	0	0	0	0	510	511
2330	0	0	0	0	511	508
2331	0	0	0	0	510	512
2332	0	0	0	0	513	512
2333	0	0	0	0	511	511
2334	0	0	0	0	510	512
2335	0	0	0	0	510	515
2336	0	0	0	0	508	513
2337	0	0	0	0	505	515
2338	0	0	0	0	505	514
2339	0	0	0	0	504	514
2340	0	0	0	0	506	512
2341	0	0	0	0	508	513
2342	0	0	0	0	508	515
2343	0	0	0	0	507	512
2344	0	0	0	0	510	511
2345	0	0	0	0	513	510
2346	0	0	0	0	517	512
2347	0	0	0	0	518	513
2348	0	0	0	0	516	514
2349	0	0	0	0	517	512
2350	0	0	0	0	513	515
2351	0	0	0	0	505	513
2352	0	0	0	0	504	513
2353	0	0	0	0	504	513
2354	0	0	0	0	505	511
2355	0	0	0	0	507	510
2356	0	0	0	0	505	508
2357	0	0	0	0	506	508
2358	0	0	0	0	508	511
2359	0	0	0	0	508	511
2360	0	0	0	0	510	509
2361	0	0	0	0	507	509
2362	0	0	0	0	507	511
2363	0	0	0	0	509	510
2364	0	0	0	0	510	504
2365	0	0	0	0	510	509
2366	0	0	0	0	512	512
2367	0	0	0	0	512	511
2368	0	0	0	0	513	508
2369	0	0	0	0	512	509
2370	0	0	0	0	511	511
2371	0	0	0	0	512	511
2372	0	0	0	0	508	508
2373	0	0	0	0	511	511
2374	0	0	0	0	510	513
2375	0	0	0	0	510	513
2376	0	0	0	0	508	515
2377	0	0	0	0	511	514
2378	0	0	0	0	508	515
2379	0	0	0	0	509	518
2380	0	0	0	0	510	515
2381	0	0	0	0	511	516
2382	0	0	0	0	508	514
2383	0	0	0	0	507	513
2384	0	0	0	0	509	511
2385	0	0	0	0	508	512
2386	0	0	0	0	510	515
2387	0	0	0	0	511	513
2388	0	0	0	0	512	512
2389	0	0	0	0	510	511
2390	0	0	0	0	509	513
2391	0	0	0	0	510	513
2392	0	0	0	0	511	513
2393	0	0	0	0	511	516
2394	0	0	0	0	509	515
2395	0	0	0	0	509	514
2396	0	0	0	0	509	515
2397	0	0	0	0	508	514
2398	0	0	0	0	509	515
2399	0	0	0	0	510	512
2400	0	0	0	0	507	513
2401	0	0	0	0	507	513
2402	0	0	0	0	506	511
2403	0	0	0	0	505	512
2404	0	0	0	0	506	514
2405	0	0	0	0	506	513
2406	0	0	0	0	508	514
2407	0	0	0	0	509	513
2408	0	0	0	0	510	512
2409	0	0	0	0	513	512
2410	0	0	0	0	520	509
2411	0	0	0	0	519	511
2412	0	0	0	0	515	510
2413	0	0	0	0	511	514
2414	0	0	0	0	510	514
2415	0	0	0	0	508	513
2416	0	0	0	0	508	512
2417	0	0	0	0	508	511
2418	0	0	0	0	504	512
2419	0	0	0	0	508	513
2420	0	0	0	0	509	513
2421	0	0	0	0	509	513
2422	0	0	0	0	507	512
2423	0	0	0	0	506	510
2424	0	0	0	0	505	508
2425	0	0	0	0	505	510
2426	0	0	0	0	508	512
2427	0	0	0	0	507	514
2428	0	0	0	0	505	513
2429	0	0	0	0	513	514
2430	0	0	0	0	515	511
2431	0	0	0	0	515	511
2432	0	0	0	0	512	511
2433	0	0	0	0	510	515
2434	0	0	0	0	509	513
2435	0	0	0	0	511	512
2436	0	0	0	0	508	514
2437	0	0	0	0	507	512
2438	0	0	0	0	512	512
2439	0	0	0	0	516	512
2440	0	0	0	0	512	512
2441	0	0	0	0	507	511
2442	0	0	0	0	502	512
2443	0	0	0	0	504	512
2444	0	0	0	0	506	512
2445	0	0	0	0	509	512
2446	0	0	0	0	510	512
2447	0	0	0	0	512	513
2448	0	0	0	0	511	514
2449	0	0	0	0	516	512
2450	0	0	0	0	517	514
2451	0	0	0	0	514	513
2452	0	0	0	0	511	512
2453	0	0	0	0	508	510
2454	0	0	0	0	505	511
2455	0	0	0	0	501	513
2456	0	0	0	0	504	512
2457	0	0	0	0	504	511
2458	0	0	0	0	508	512
2459	0	0	0	0	505	510
2460	0	0	0	0	508	509
2461	0	0	0	0	509	513
2462	0	0	0	0	512	515
2463	0	0	0	0	512	512
2464	0	0	0	0	510	513
2465	0	0	0	0	509	515
2466	0	0	0	0	511	512
2467	0	0	0	0	512	513
2468	0	0	0	0	512	509
2469	0	0	0	0	510	511
2470	0	0	0	0	512	510
2471	0	0	0	0	512	514
2472	0	0	0	0	509	513
2473	0	0	0	0	509	515
2474	0	0	0	0	507	514
2475	0	0	0	0	507	512
2476	0	0	0	0	507	513
2477	0	0	0	0	508	512
2478	0	0	0	0	508	510
2479	0	0	0	0	509	512
2480	0	0	0	0	508	512
2481	0	0	0	0	504	515
2482	0	0	0	0	503	512
2483	0	0	0	0	505	513
2484	0	0	0	0	505	515
2485	0	0	0	0	505	513
2486	0	0	0	0	505	512
2487	0	0	0	0	506	513
2488	0	0	0	0	507	509
2489	0	0	0	0	507	511
2490	0	0	0	0	504	515
2491	0	0	0	0	503	511
2492	0	0	0	0	503	509
2493	0	0	0	0	504	513
2494	0	0	0	0	506	511
2495	0	0	0	0	512	512
2496	0	0	0	0	519	514
2497	0	0	0	0	520	514
2498	0	0	0	0	520	514
2499	0	0	0	0	517	513
2500	0	0	0	0	515	513
2501	0	0	0	0	515	512
2502	0	0	0	0	515	511
2503	0	0	0	0	518	511
2504	0	0	0	0	518	511
2505	0	0	0	0	519	514
2506	0	0	0	0	518	514
2507	0	0	0	0	518	514
2508	0	0	0	0	519	514
2509	0	0	0	0	518	514
2510	0	0	0	0	515	515
2511	0	0	0	0	512	513
2512	0	0	0	0	512	513
2513	0	0	0	0	511	512
2514	0	0	0	0	508	509
2515	0	0	0	0	510	509
2516	0	0	0	0	512	513
2517	0	0	0	0	511	511
2518	0	0	0	0	510	512
2519	0	0	0	0	510	513
2520	0	0	0	0	513	513
2521	0	0	0	0	512	510
2522	0	0	0	0	508	511
2523	0	0	0	0	507	511
2524	0	0	0	0	504	513
2525	0	0	0	0	506	511
2526	0	0	0	0	503	512
2527	0	0	0	0	504	511
2528	0	0	0	0	502	513
2529	0	0	0	0	506	511
2530	0	0	0	0	509	512
2531	0	0	0	0	513	512
2532	0	0	0	0	508	514
2533	0	0	0	0	504	513
2534	0	0	0	0	506	512
2535	0	0	0	0	508	512
2536	0	0	0	0	510	511
2537	0	0	0	0	511	513
2538	0	0	0	0	511	511
2539	0	0	0	0	504	511
2540	0	0	0	0	503	511
2541	0	0	0	0	504	513
2542	0	0	0	0	504	512
2543	0	0	0	0	508	511
2544	0	0	0	0	507	512
2545	0	0	0	0	508	513
2546	0	0	0	0	511	513
2547	0	0	0	0	513	511
2548	0	0	0	0	509	512
2549	0	0	0	0	510	513
2550	0	0	0	0	509	513
2551	0	0	0	0	507	512
2552	0	0	0	0	508	513
2553	0	0	0	0	510	511
2554	0	0	0	0	513	511
2555	0	0	0	0	514	513
2556	0	0	0	0	514	514
2557	0	0	0	0	512	515
2558	0	0	0	0	513	512
2559	0	0	0	0	509	513
2560	0	0	0	0	508	511
2561	0	0	0	0	508	510
2562	0	0	0	0	507	512
2563	0	0	0	0	506	513
2564	0	0	0	0	511	511
2565	0	0	0	0	512	512
2566	0	0	0	0	511	512
2567	0	0	0	0	508	510
2568	0	0	0	0	505	512
2569	0	0	0	0	507	513
2570	0	0	0	0	510	513
2571	0	0	0	0	508	512
2572	0	0	0	0	508	515
2573	0	0	0	0	505	513
2574	0	0	0	0	510	510
2575	0	0	0	0	508	515
2576	0	0	0	0	508	511
2577	0	0	0	0	509	512
2578	0	0	0	0	515	513
2579	0	0	0	0	512	509
2580	0	0	0	0	511	510
2581	0	0	0	0	510	510
2582	0	0	0	0	508	510
2583	0	0	0	0	509	510
2584	0	0	0	0	510	513
2585	0	0	0	0	511	514
2586	0	0	0	0	513	513
2587	0	0	0	0	510	513
2588	0	0	0	0	512	515
2589	0	0	0	0	510	512
2590	0	0	0	0	506	511
2591	0	0	0	0	506	511
2592	0	0	0	0	511	510
2593	0	0	0	0	512	512
2594	0	0	0	0	508	514
2595	0	0	0	0	506	514
2596	0	0	0	0	508	512
2597	0	0	0	0	511	509
2598	0	0	0	0	511	511
2599	0	0	0	0	510	512
2600	0	0	0	0	507	513
2601	0	0	0	0	506	512
2602	0	0	0	0	510	513
2603	0	0	0	0	511	513
2604	0	0	0	0	512	514
2605	0	0	0	0	509	514
2606	0	0	0	0	511	513
2607	0	0	0	0	510	513
2608	0	0	0	0	511	515
2609	0	0	0	0	508	514
2610	0	0	0	0	511	513
2611	0	0	0	0	509	513
2612	0	0	0	0	510	510
2613	0	0	0	0	509	511
2614	0	0	0	0	511	511
2615	0	0	0	0	511	511
2616	0	0	0	0	509	511
2617	0	0	0	0	510	512
2618	0	0	0	0	509	512
2619	0	0	0	0	508	510
2620	0	0	0	0	508	510
2621	0	0	0	0	509	511
2622	0	0	0	0	509	512
2623	0	0	0	0	511	511
2624	0	0	0	0	509	513
2625	0	0	0	0	508	512
2626	0	0	0	0	509	514
2627	0	0	0	0	512	515
2628	0	0	0	0	513	514
2629	0	0	0	0	511	513
2630	0	0	0	0	507	513
2631	0	0	0	0	509	513
2632	0	0	0	0	510	512
2633	0	0	0	0	511	513
2634	0	0	0	0	510	512
2635	0	0	0	0	510	511
2636	0	0	0	0	508	513
2637	0	0	0	0	509	511
2638	0	0	0	0	508	513
2639	0	0	0	0	508	511
2640	0	0	0	0	504	512
2641	0	0	0	0	506	512
2642	0	0	0	0	507	511
2643	0	0	0	0	507	512
2644	0	0	0	0	513	511
2645	0	0	0	0	511	514
2646	0	0	0	0	512	512
2647	0	0	0	0	512	511
2648	0	0	0	0	515	513
2649	0	0	0	0	516	515
2650	0	0	0	0	511	512
2651	0	0	0	0	512	512
2652	0	0	0	0	506	511
2653	0	0	0	0	504	512
2654	0	0	0	0	504	510
2655	0	0	0	0	505	513
2656	0	0	0	0	507	511
2657	0	0	0	0	510	512
2658	0	0	0	0	511	512
2659	0	0	0	0	511	513
2660	0	0	0	0	510	513
2661	0	0	0	0	506	512
2662	0	0	0	0	508	512
2663	0	0	0	0	511	512
2664	0	0	0	0	511	511
2665	0	0	0	0	512	511
2666	0	0	0	0	511	513
2667	0	0	0	0	507	514
2668	0	0	0	0	508	512
2669	0	0	0	0	508	511
2670	0	0	0	0	507	510
2671	0	0	0	0	510	510
2672	0	0	0	0	513	510
2673	0	0	0	0	513	515
2674	0	0	0	0	517	513
2675	0	0	0	0	516	513
2676	0	0	0	0	516	513
2677	0	0	0	0	512	511
2678	0	0	0	0	507	512
2679	0	0	0	0	507	513
2680	0	0	0	0	508	514
2681	0	0	0	0	508	514
2682	0	0	0	0	509	512
2683	0	0	0	0	506	514
2684	0	0	0	0	508	509
2685	0	0	0	0	506	514
2686	0	0	0	0	508	514
2687	0	0	0	0	507	511
2688	0	0	0	0	503	514
2689	0	0	0	0	502	513
2690	0	0	0	0	507	512
2691	0	0	0	0	511	511
2692	0	0	0	0	514	512
2693	0	0	0	0	517	512
2694	0	0	0	0	517	511
2695	0	0	0	0	513	509
2696	0	0	0	0	512	511
2697	0	0	0	0	512	511
2698	0	0	0	0	512	515
2699	0	0	0	0	515	514
2700	0	0	0	0	518	513
2701	0	0	0	0	511	512
2702	0	0	0	0	508	512
2703	0	0	0	0	509	511
2704	0	0	0	0	504	513
2705	0	0	0	0	500	512
2706	0	0	0	0	501	514
2707	0	0	0	0	501	513
2708	0	0	0	0	503	513
2709	0	0	0	0	506	513
2710	0	0	0	0	508	512
2711	0	0	0	0	508	512
2712	0	0	0	0	513	511
2713	0	0	0	0	514	513
2714	0	0	0	0	512	511
2715	0	0	0	0	512	511
2716	0	0	0	0	509	510
2717	0	0	0	0	508	509
2718	0	0	0	0	508	510
2719	0	0	0	0	511	513
2720	0	0	0	0	515	514
2721	0	0	0	0	512	513
2722	0	0	0	0	510	513
2723	0	0	0	0	511	514
2724	0	0	0	0	510	512
2725	0	0	0	0	511	511
2726	0	0	0	0	508	512
2727	0	0	0	0	511	513
2728	0	0	0	0	511	513
2729	0	0	0	0	513	514
2730	0	0	0	0	512	511
2731	0	0	0	0	510	514
2732	0	0	0	0	508	512
2733	0	0	0	0	508	512
2734	0	0	0	0	505	512
2735	0	0	0	0	507	513
2736	0	0	0	0	505	511
2737	0	0	0	0	511	511
2738	0	0	0	0	513	513
2739	0	0	0	0	512	511
2740	0	0	0	0	513	512
2741	0	0	0	0	512	511
2742	0	0	0	0	512	510
2743	0	0	0	0	512	513
2744	0	0	0	0	512	512
2745	0	0	0	0	512	514
2746	0	0	0	0	507	513
2747	0	0	0	0	508	513
2748	0	0	0	0	508	513
2749	0	0	0	0	508	513
2750	0	0	0	0	508	513
2751	0	0	0	0	508	513
2752	0	0	0	0	506	512
2753	0	0	0	0	510	512
2754	0	0	0	0	508	513
2755	0	0	0	0	508	513
2756	0	0	0	0	509	513
2757	0	0	0	0	509	513
2758	0	0	0	0	505	512
2759	0	0	0	0	507	514
2760	0	0	0	0	507	509
2761	0	0	0	0	508	511
2762	0	0	0	0	510	511
2763	0	0	0	0	510	511
2764	0	0	0	0	511	511
2765	0	0	0	0	513	513
2766	0	0	0	0	516	511
2767	0	0	0	0	511	511
2768	0	0	0	0	510	511
2769	0	0	0	0	510	512
2770	0	0	0	0	507	512
2771	0	0	0	0	508	511
2772	0	0	0	0	510	511
2773	0	0	0	0	511	511
2774	0	0	0	0	510	512
2775	0	0	0	0	505	513
2776	0	0	0	0	504	515
2777	0	0	0	0	501	512
2778	0	0	0	0	506	513
2779	0	0	0	0	511	512
2780	0	0	0	0	516	516
2781	0	0	0	0	520	512
2782	0	0	0	0	519	514
2783	0	0	0	0	516	511
2784	0	0	0	0	511	515
2785	0	0	0	0	511	512
2786	0	0	0	0	506	513
2787	0	0	0	0	506	510
2788	0	0	0	0	505	510
2789	0	0	0	0	507	512
2790	0	0	0	0	507	512
2791	0	0	0	0	506	511
2792	0	0	0	0	506	512
2793	0	0	0	0	504	513
2794	0	0	0	0	506	513
2795	0	0	0	0	507	512
2796	0	0	0	0	511	512
2797	0	0	0	0	516	514
2798	0	0	0	0	515	512
2799	0	0	0	0	515	511
2800	0	0	0	0	512	511
2801	0	0	0	0	510	511
2802	0	0	0	0	508	510
2803	0	0	0	0	507	511
2804	0	0	0	0	508	512
2805	0	0	0	0	508	514
2806	0	0	0	0	504	513
2807	0	0	0	0	508	512
2808	0	0	0	0	508	512
2809	0	0	0	0	509	512
2810	0	0	0	0	507	512
2811	0	0	0	0	508	512
2812	0	0	0	0	511	511
2813	0	0	0	0	518	512
2814	0	0	0	0	514	513
2815	0	0	0	0	512	514
2816	0	0	0	0	510	514
2817	0	0	0	0	508	512
2818	0	0	0	0	510	515
2819	0	0	0	0	510	515
2820	0	0	0	0	510	513
2821	0	0	0	0	510	511
2822	0	0	0	0	508	511
2823	0	0	0	0	507	511
2824	0	0	0	0	505	510
2825	0	0	0	0	504	511
2826	0	0	0	0	508	513
2827	0	0	0	0	512	512
2828	0	0	0	0	513	513
2829	0	0	0	0	511	512
2830	0	0	0	0	508	511
2831	0	0	0	0	511	510
2832	0	0	0	0	507	513
2833	0	0	0	0	506	513
2834	0	0	0	0	507	513
2835	0	0	0	0	508	513
2836	0	0	0	0	515	512
2837	0	0	0	0	512	511
2838	0	0	0	0	512	513
2839	0	0	0	0	513	514
2840	0	0	0	0	514	513
2841	0	0	0	0	511	511
2842	0	0	0	0	509	513
2843	0	0	0	0	508	511
2844	0	0	0	0	508	512
2845	0	0	0	0	512	513
2846	0	0	0	0	510	511
2847	0	0	0	0	511	511
2848	0	0	0	0	508	513
2849	0	0	0	0	507	515
2850	0	0	0	0	503	513
2851	0	0	0	0	504	515
2852	0	0	0	0	506	512
2853	0	0	0	0	509	514
2854	0	0	0	0	512	514
2855	0	0	0	0	511	512
2856	0	0	0	0	511	510
2857	0	0	0	0	511	511
2858	0	0	0	0	510	511
2859	0	0	0	0	511	513
2860	0	0	0	0	510	514
2861	0	0	0	0	510	512
2862	0	0	0	0	511	513
2863	0	0	0	0	510	514
2864	0	0	0	0	509	512
2865	0	0	0	0	503	512
2866	0	0	0	0	504	511
2867	0	0	0	0	505	512
2868	0	0	0	0	510	511
2869	0	0	0	0	513	511
2870	0	0	0	0	513	512
2871	0	0	0	0	513	512
2872	0	0	0	0	511	513
2873	0	0	0	0	512	515
2874	0	0	0	0	512	511
2875	0	0	0	0	515	511
2876	0	0	0	0	511	512
2877	0	0	0	0	509	510
2878	0	0	0	0	510	510
2879	0	0	0	0	509	510
2880	0	0	0	0	511	513
2881	0	0	0	0	509	510
2882	0	0	0	0	507	509
2883	0	0	0	0	509	509
2884	0	0	0	0	507	514
2885	0	0	0	0	508	512
2886	0	0	0	0	505	511
2887	0	0	0	0	508	513
2888	0	0	0	0	508	512
2889	0	0	0	0	509	512
2890	0	0	0	0	507	513
2891	0	0	0	0	506	512
2892	0	0	0	0	508	513
2893	0	0	0	0	508	512
2894	0	0	0	0	511	511
2895	0	0	0	0	512	512
2896	0	0	0	0	511	510
2897	0	0	0	0	510	511
2898	0	0	0	0	508	512
2899	0	0	0	0	507	512
2900	0	0	0	0	509	511
2901	0	0	0	0	511	511
2902	0	0	0	0	512	510
2903	0	0	0	0	513	510
2904	0	0	0	0	511	512
2905	0	0	0	0	509	513
2906	0	0	0	0	510	515
2907	0	0	0	0	512	513
2908	0	0	0	0	512	514
2909	0	0	0	0	508	513
2910	0	0	0	0	507	512
2911	0	0	0	0	508	513
2912	0	0	0	0	509	513
2913	0	0	0	0	512	513
2914	0	0	0	0	514	515
2915	0	0	0	0	512	516
2916	0	0	0	0	516	513
2917	0	0	0	0	512	513
2918	0	0	0	0	508	511
2919	0	0	0	0	508	513
2920	0	0	0	0	506	512
2921	0	0	0	0	507	511
2922	0	0	0	0	506	511
2923	0	0	0	0	508	510
2924	0	0	0	0	510	513
2925	0	0	0	0	508	514
2926	0	0	0	0	507	512
2927	0	0	0	0	505	512
2928	0	0	0	0	507	511
2929	0	0	0	0	507	510
2930	0	0	0	0	506	512
2931	0	0	0	0	511	513
2932	0	0	0	0	513	513
2933	0	0	0	0	510	513
2934	0	0	0	0	508	513
2935	0	0	0	0	511	516
2936	0	0	0	0	510	511
2937	0	0	0	0	508	510
2938	0	0	0	0	510	512
2939	0	0	0	0	506	510
2940	0	0	0	0	507	511
2941	0	0	0	0	510	511
2942	0	0	0	0	510	510
2943	0	0	0	0	508	511
2944	0	0	0	0	512	511
2945	0	0	0	0	517	514
2946	0	0	0	0	516	511
2947	0	0	0	0	514	515
2948	0	0	0	0	513	513
2949	0	0	0	0	518	514
2950	0	0	0	0	512	513
2951	0	0	0	0	506	515
2952	0	0	0	0	504	513
2953	0	0	0	0	507	512
2954	0	0	0	0	511	511
2955	0	0	0	0	511	512
2956	0	0	0	0	512	515
2957	0	0	0	0	516	512
2958	0	0	0	0	516	512
2959	0	0	0	0	508	512
2960	0	0	0	0	505	511
2961	0	0	0	0	504	510
2962	0	0	0	0	502	514
2963	0	0	0	0	503	511
2964	0	0	0	0	505	512
2965	0	0	0	0	508	513
2966	0	0	0	0	507	511
2967	0	0	0	0	506	511
2968	0	0	0	0	507	512
2969	0	0	0	0	508	510
2970	0	0	0	0	509	513
2971	0	0	0	0	508	512
2972	0	0	0	0	509	510
2973	0	0	0	0	512	511
2974	0	0	0	0	513	512
2975	0	0	0	0	512	513
2976	0	0	0	0	512	515
2977	0	0	0	0	511	513
2978	0	0	0	0	512	515
2979	0	0	0	0	511	512
2980	0	0	0	0	509	515
2981	0	0	0	0	508	512
2982	0	0	0	0	512	511
2983	0	0	0	0	514	511
2984	0	0	0	0	516	513
2985	0	0	0	0	514	512
2986	0	0	0	0	510	511
2987	0	0	0	0	508	516
2988	0	0	0	0	508	512
2989	0	0	0	0	505	513
2990	0	0	0	0	505	513
2991	0	0	0	0	505	512
2992	0	0	0	0	507	513
2993	0	0	0	0	508	512
2994	0	0	0	0	507	511
2995	0	0	0	0	509	511
2996	0	0	0	0	510	512
2997	0	0	0	0	511	514
2998	0	0	0	0	512	511
2999	0	0	0	0	512	511
3000	0	0	0	0	507	510
3001	0	0	0	0	508	509
3002	0	0	0	0	511	512
3003	0	0	0	0	511	512
3004	0	0	0	0	507	512
3005	0	0	0	0	508	517
3006	0	0	0	0	509	513
3007	0	0	0	0	511	513
3008	0	0	0	0	514	511
3009	0	0	0	0	512	511
3010	0	0	0	0	510	513
3011	0	0	0	0	510	512
3012	0	0	0	0	511	513
3013	0	0	0	0	510	512
3014	0	0	0	0	510	512
3015	0	0	0	0	509	511
3016	0	0	0	0	507	512
3017	0	0	0	0	508	512
3018	0	0	0	0	508	512
3019	0	0	0	0	507	513
3020	0	0	0	0	507	512
3021	0	0	0	0	506	512
3022	0	0	0	0	510	511
3023	0	0	0	0	512	511
3024	0	0	0	0	516	512
3025	0	0	0	0	518	512
3026	0	0	0	0	519	511
3027	0	0	0	0	514	513
3028	0	0	0	0	510	514
3029	0	0	0	0	508	515
3030	0	0	0	0	507	515
3031	0	0	0	0	505	512
3032	0	0	0	0	507	514
3033	0	0	0	0	507	513
3034	0	0	0	0	505	511
3035	0	0	0	0	504	514
3036	0	0	0	0	510	513
3037	0	0	0	0	513	515
3038	0	0	0	0	513	514
3039	0	0	0	0	511	515
3040	0	0	0	0	511	515
3041	0	0	0	0	508	513
3042	0	0	0	0	510	513
3043	0	0	0	0	510	512
3044	0	0	0	0	508	511
3045	0	0	0	0	504	511
3046	0	0	0	0	506	513
3047	0	0	0	0	509	513
3048	0	0	0	0	509	513
3049	0	0	0	0	506	513
3050	0	0	0	0	507	512
3051	0	0	0	0	505	512
3052	0	0	0	0	510	511
3053	0	0	0	0	513	511
3054	0	0	0	0	515	509
3055	0	0	0	0	515	511
3056	0	0	0	0	519	510
3057	0	0	0	0	515	509
3058	0	0	0	0	511	508
3059	0	0	0	0	509	510
3060	0	0	0	0	509	512
3061	0	0	0	0	509	511
3062	0	0	0	0	508	509
3063	0	0	0	0	504	508
3064	0	0	0	0	509	510
3065	0	0	0	0	513	509
3066	0	0	0	0	510	510
3067	0	0	0	0	511	512
3068	0	0	0	0	508	512
3069	0	0	0	0	508	509
3070	0	0	0	0	506	510
3071	0	0	0	0	507	509
3072	0	0	0	0	509	509
3073	0	0	0	0	511	511
3074	0	0	0	0	509	513
3075	0	0	0	0	510	515
3076	0	0	0	0	508	515
3077	0	0	0	0	512	515
3078	0	0	0	0	516	515
3079	0	0	0	0	514	512
3080	0	0	0	0	508	512
3081	0	0	0	0	507	514
3082	0	0	0	0	507	512
3083	0	0	0	0	507	512
3084	0	0	0	0	507	515
3085	0	0	0	0	506	513
3086	0	0	0	0	508	513
3087	0	0	0	0	510	513
3088	0	0	0	0	508	513
3089	0	0	0	0	507	513
3090	0	0	0	0	509	515
3091	0	0	0	0	509	513
3092	0	0	0	0	511	515
3093	0	0	0	0	509	515
3094	0	0	0	0	509	512
3095	0	0	0	0	511	512
3096	0	0	0	0	510	514
3097	0	0	0	0	508	513
3098	0	0	0	0	513	515
3099	0	0	0	0	511	515
3100	0	0	0	0	510	514
3101	0	0	0	0	508	512
3102	0	0	0	0	510	511
3103	0	0	0	0	506	512
3104	0	0	0	0	507	512
3105	0	0	0	0	510	512
3106	0	0	0	0	509	511
3107	0	0	0	0	513	508
3108	0	0	0	0	519	511
3109	0	0	0	0	516	510
3110	0	0	0	0	511	511
3111	0	0	0	0	508	513
3112	0	0	0	0	509	512
3113	0	0	0	0	508	512
3114	0	0	0	0	508	511
3115	0	0	0	0	510	513
3116	0	0	0	0	508	511
3117	0	0	0	0	506	511
3118	0	0	0	0	506	513
3119	0	0	0	0	506	513
3120	0	0	0	0	508	514
3121	0	0	0	0	507	512
3122	0	0	0	0	509	513
3123	0	0	0	0	510	515
3124	0	0	0	0	512	514
3125	0	0	0	0	515	512
3126	0	0	0	0	514	513
3127	0	0	0	0	512	513
3128	0	0	0	0	510	510
3129	0	0	0	0	512	512
3130	0	0	0	0	511	512
3131	0	0	0	0	508	512
3132	0	0	0	0	508	513
3133	0	0	0	0	507	512
3134	0	0	0	0	508	511
3135	0	0	0	0	507	512
3136	0	0	0	0	505	512
3137	0	0	0	0	508	513
3138	0	0	0	0	515	512
3139	0	0	0	0	517	512
3140	0	0	0	0	512	512
3141	0	0	0	0	510	514
3142	0	0	0	0	509	512
3143	0	0	0	0	511	513
3144	0	0	0	0	509	515
3145	0	0	0	0	510	514
3146	0	0	0	0	510	511
3147	0	0	0	0	508	512
3148	0	0	0	0	505	512
3149	0	0	0	0	504	513
3150	0	0	0	0	508	513
3151	0	0	0	0	511	511
3152	0	0	0	0	510	511
3153	0	0	0	0	510	511
3154	0	0	0	0	510	511
3155	0	0	0	0	508	510
3156	0	0	0	0	508	512
3157	0	0	0	0	510	513
3158	0	0	0	0	509	512
3159	0	0	0	0	508	513
3160	0	0	0	0	508	512
3161	0	0	0	0	505	512
3162	0	0	0	0	505	513
3163	0	0	0	0	511	515
3164	0	0	0	0	510	511
3165	0	0	0	0	512	512
3166	0	0	0	0	515	511
3167	0	0	0	0	518	510
3168	0	0	0	0	513	512
3169	0	0	0	0	508	514
3170	0	0	0	0	506	513
3171	0	0	0	0	506	512
3172	0	0	0	0	509	514
3173	0	0	0	0	513	512
3174	0	0	0	0	513	512
3175	0	0	0	0	509	513
3176	0	0	0	0	511	513
3177	0	0	0	0	511	514
3178	0	0	0	0	512	512
3179	0	0	0	0	508	512
3180	0	0	0	0	508	510
3181	0	0	0	0	505	511
3182	0	0	0	0	504	511
3183	0	0	0	0	505	513
3184	0	0	0	0	503	513
3185	0	0	0	0	501	512
3186	0	0	0	0	503	512
3187	0	0	0	0	506	512
3188	0	0	0	0	507	512
3189	0	0	0	0	507	513
3190	0	0	0	0	509	514
3191	0	0	0	0	508	513
3192	0	0	0	0	508	513
3193	0	0	0	0	505	513
3194	0	0	0	0	507	512
3195	0	0	0	0	504	512
3196	0	0	0	0	503	514
3197	0	0	0	0	502	511
3198	0	0	0	0	504	511
3199	0	0	0	0	506	509
3200	0	0	0	0	511	510
3201	0	0	0	0	519	512
3202	0	0	0	0	523	510
3203	0	0	0	0	520	513
3204	0	0	0	0	519	513
3205	0	0	0	0	516	513
3206	0	0	0	0	517	511
3207	0	0	0	0	516	512
3208	0	0	0	0	522	511
3209	0	0	0	0	519	512
3210	0	0	0	0	522	515
3211	0	0	0	0	518	513
3212	0	0	0	0	515	515
3213	0	0	0	0	513	513
3214	0	0	0	0	515	513
3215	0	0	0	0	511	511
3216	0	0	0	0	512	511
3217	0	0	0	0	513	512
3218	0	0	0	0	515	511
3219	0	0	0	0	510	513
3220	0	0	0	0	510	511
3221	0	0	0	0	508	512
3222	0	0	0	0	505	511
3223	0	0	0	0	506	511
3224	0	0	0	0	505	512
3225	0	0	0	0	504	511
3226	0	0	0	0	504	511
3227	0	0	0	0	505	513
3228	0	0	0	0	510	513
3229	0	0	0	0	512	512
3230	0	0	0	0	516	515
3231	0	0	0	0	515	516
3232	0	0	0	0	513	513
3233	0	0	0	0	504	512
3234	0	0	0	0	506	511
3235	0	0	0	0	505	515
3236	0	0	0	0	510	511
3237	0	0	0	0	506	511
3238	0	0	0	0	507	511
3239	0	0	0	0	510	511
3240	0	0	0	0	508	512
3241	0	0	0	0	507	513
3242	0	0	0	0	505	512
3243	0	0	0	0	509	512
3244	0	0	0	0	507	514
3245	0	0	0	0	504	510
3246	0	0	0	0	505	513
3247	0	0	0	0	504	511
3248	0	0	0	0	506	512
3249	0	0	0	0	505	511
3250	0	0	0	0	509	511
3251	0	0	0	0	509	512
3252	0	0	0	0	507	515
3253	0	0	0	0	510	513
3254	0	0	0	0	511	512
3255	0	0	0	0	512	511
3256	0	0	0	0	509	514
3257	0	0	0	0	506	514
3258	0	0	0	0	510	514
3259	0	0	0	0	511	512
3260	0	0	0	0	511	512
3261	0	0	0	0	512	511
3262	0	0	0	0	508	512
3263	0	0	0	0	512	513
3264	0	0	0	0	512	512
3265	0	0	0	0	511	512
3266	0	0	0	0	510	512
3267	0	0	0	0	508	512
3268	0	0	0	0	508	513
3269	0	0	0	0	508	512
3270	0	0	0	0	507	512
3271	0	0	0	0	511	513
3272	0	0	0	0	509	512
3273	0	0	0	0	508	512
3274	0	0	0	0	512	513
3275	0	0	0	0	512	510
3276	0	0	0	0	509	513
3277	0	0	0	0	510	512
3278	0	0	0	0	508	509
3279	0	0	0	0	508	512
3280	0	0	0	0	512	512
3281	0	0	0	0	511	515
3282	0	0	0	0	511	515
3283	0	0	0	0	508	514
3284	0	0	0	0	508	513
3285	0	0	0	0	509	512
3286	0	0	0	0	510	512
3287	0	0	0	0	513	513
3288	0	0	0	0	511	511
3289	0	0	0	0	510	514
3290	0	0	0	0	508	513
3291	0	0	0	0	509	511
3292	0	0	0	0	508	509
3293	0	0	0	0	506	511
3294	0	0	0	0	508	510
3295	0	0	0	0	512	512
3296	0	0	0	0	512	511
3297	0	0	0	0	511	513
3298	0	0	0	0	513	515
3299	0	0	0	0	510	513
3300	0	0	0	0	510	514
3301	0	0	0	0	509	513
3302	0	0	0	0	504	513
3303	0	0	0	0	507	513
3304	0	0	0	0	509	513
3305	0	0	0	0	508	510
3306	0	0	0	0	503	511
3307	0	0	0	0	505	512
3308	0	0	0	0	505	512
3309	0	0	0	0	508	512
3310	0	0	0	0	512	515
3311	0	0	0	0	517	514
3312	0	0	0	0	520	514
3313	0	0	0	0	522	512
3314	0	0	0	0	521	513
3315	0	0	0	0	514	513
3316	0	0	0	0	510	512
3317	0	0	0	0	507	513
3318	0	0	0	0	507	513
3319	0	0	0	0	503	511
3320	0	0	0	0	503	511
3321	0	0	0	0	502	512
3322	0	0	0	0	501	512
3323	0	0	0	0	507	511
3324	0	0	0	0	511	512
3325	0	0	0	0	509	513
3326	0	0	0	0	507	515
3327	0	0	0	0	507	514
3328	0	0	0	0	509	512
3329	0	0	0	0	507	513
3330	0	0	0	0	507	514
3331	0	0	0	0	509	514
3332	0	0	0	0	512	511
3333	0	0	0	0	515	511
3334	0	0	0	0	516	511
3335	0	0	0	0	515	511
3336	0	0	0	0	511	511
3337	0	0	0	0	505	513
3338	0	0	0	0	508	511
3339	0	0	0	0	510	511
3340	0	0	0	0	510	512
3341	0	0	0	0	513	510
3342	0	0	0	0	512	511
3343	0	0	0	0	511	513
3344	0	0	0	0	511	514
3345	0	0	0	0	510	515
3346	0	0	0	0	508	512
3347	0	0	0	0	505	511
3348	0	0	0	0	505	511
3349	0	0	0	0	505	511
3350	0	0	0	0	509	513
3351	0	0	0	0	510	513
3352	0	0	0	0	511	513
3353	0	0	0	0	510	511
3354	0	0	0	0	512	511
3355	0	0	0	0	512	512
3356	0	0	0	0	511	512
3357	0	0	0	0	505	512
3358	0	0	0	0	505	512
3359	0	0	0	0	505	513
3360	0	0	0	0	510	511
3361	0	0	0	0	509	515
3362	0	0	0	0	510	514
3363	0	0	0	0	512	513
3364	0	0	0	0	512	513
3365	0	0	0	0	510	511
3366	0	0	0	0	512	512
3367	0	0	0	0	511	512
3368	0	0	0	0	508	513
3369	0	0	0	0	507	510
3370	0	0	0	0	503	512
3371	0	0	0	0	505	512
3372	0	0	0	0	507	515
3373	0	0	0	0	511	513
3374	0	0	0	0	515	512
3375	0	0	0	0	515	512
3376	0	0	0	0	511	511
3377	0	0	0	0	511	512
3378	0	0	0	0	510	511
3379	0	0	0	0	508	514
3380	0	0	0	0	510	516
3381	0	0	0	0	508	514
3382	0	0	0	0	511	513
3383	0	0	0	0	512	512
3384	0	0	0	0	512	513
3385	0	0	0	0	511	512
3386	0	0	0	0	510	511
3387	0	0	0	0	508	511
3388	0	0	0	0	515	511
3389	0	0	0	0	512	511
3390	0	0	0	0	510	512
3391	0	0	0	0	507	510
3392	0	0	0	0	507	510
3393	0	0	0	0	507	512
3394	0	0	0	0	509	513
3395	0	0	0	0	511	514
3396	0	0	0	0	510	516
3397	0	0	0	0	510	513
3398	0	0	0	0	505	513
3399	0	0	0	0	511	512
3400	0	0	0	0	508	512
3401	0	0	0	0	507	512
3402	0	0	0	0	505	512
3403	0	0	0	0	509	512
3404	0	0	0	0	510	511
3405	0	0	0	0	513	510
3406	0	0	0	0	510	513
3407	0	0	0	0	509	512
3408	0	0	0	0	510	512
3409	0	0	0	0	508	512
3410	0	0	0	0	508	511
3411	0	0	0	0	508	512
3412	0	0	0	0	511	512
3413	0	0	0	0	510	512
3414	0	0	0	0	508	512
3415	0	0	0	0	512	509
3416	0	0	0	0	513	512
3417	0	0	0	0	511	512
3418	0	0	0	0	514	514
3419	0	0	0	0	509	512
3420	0	0	0	0	508	513
3421	0	0	0	0	509	512
3422	0	0	0	0	509	513
3423	0	0	0	0	509	510
3424	0	0	0	0	506	512
3425	0	0	0	0	506	510
3426	0	0	0	0	507	511
3427	0	0	0	0	513	514
3428	0	0	0	0	512	514
3429	0	0	0	0	512	512
3430	0	0	0	0	511	511
3431	0	0	0	0	509	513
3432	0	0	0	0	510	512
3433	0	0	0	0	515	512
3434	0	0	0	0	512	513
3435	0	0	0	0	508	513
3436	0	0	0	0	511	515
3437	0	0	0	0	507	513
3438	0	0	0	0	507	512
3439	0	0	0	0	512	511
3440	0	0	0	0	511	513
3441	0	0	0	0	511	512
3442	0	0	0	0	511	512
3443	0	0	0	0	508	512
3444	0	0	0	0	508	514
3445	0	0	0	0	510	512
3446	0	0	0	0	512	513
3447	0	0	0	0	509	514
3448	0	0	0	0	510	511
3449	0	0	0	0	511	512
3450	0	0	0	0	506	514
3451	0	0	0	0	505	515
3452	0	0	0	0	506	512
3453	0	0	0	0	506	515
3454	0	0	0	0	508	512
3455	0	0	0	0	509	510
3456	0	0	0	0	512	511
3457	0	0	0	0	515	510
3458	0	0	0	0	516	510
3459	0	0	0	0	521	511
3460	0	0	0	0	521	512
3461	0	0	0	0	514	512
3462	0	0	0	0	511	510
3463	0	0	0	0	508	512
3464	0	0	0	0	501	510
3465	0	0	0	0	507	511
3466	0	0	0	0	504	511
3467	0	0	0	0	506	513
3468	0	0	0	0	502	513
3469	0	0	0	0	498	512
3470	0	0	0	0	503	515
3471	0	0	0	0	504	513
3472	0	0	0	0	507	512
3473	0	0	0	0	508	512
3474	0	0	0	0	510	511
3475	0	0	0	0	510	511
3476	0	0	0	0	510	512
3477	0	0	0	0	512	513
3478	0	0	0	0	512	515
3479	0	0	0	0	511	515
3480	0	0	0	0	508	513
3481	0	0	0	0	510	512
3482	0	0	0	0	514	512
3483	0	0	0	0	516	512
3484	0	0	0	0	513	512
3485	0	0	0	0	512	511
3486	0	0	0	0	510	510
3487	0	0	0	0	513	511
3488	0	0	0	0	512	511
3489	0	0	0	0	508	511
3490	0	0	0	0	507	513
3491	0	0	0	0	508	512
3492	0	0	0	0	508	512
3493	0	0	0	0	510	512
3494	0	0	0	0	510	512
3495	0	0	0	0	508	513
3496	0	0	0	0	508	515
3497	0	0	0	0	510	512
3498	0	0	0	0	508	513
3499	0	0	0	0	506	511
3500	0	0	0	0	510	512
3501	0	0	0	0	509	513
3502	0	0	0	0	511	515
3503	0	0	0	0	510	513
3504	0	0	0	0	511	513
3505	0	0	0	0	509	512
3506	0	0	0	0	510	510
3507	0	0	0	0	511	513
3508	0	0	0	0	509	512
3509	0	0	0	0	508	511
3510	0	0	0	0	508	513
3511	0	0	0	0	507	512
3512	0	0	0	0	508	512
3513	0	0	0	0	510	511
3514	0	0	0	0	512	512
3515	0	0	0	0	512	513
3516	0	0	0	0	512	513
3517	0	0	0	0	511	512
3518	0	0	0	0	512	513
3519	0	0	0	0	512	513
3520	0	0	0	0	511	511
3521	0	0	0	0	508	511
3522	0	0	0	0	508	515
3523	0	0	0	0	507	514
3524	0	0	0	0	507	512
3525	0	0	0	0	508	513
3526	0	0	0	0	508	512
3527	0	0	0	0	511	514
3528	0	0	0	0	511	514
3529	0	0	0	0	512	511
3530	0	0	0	0	510	508
3531	0	0	0	0	510	511
3532	0	0	0	0	509	512
3533	0	0	0	0	510	514
3534	0	0	0	0	511	511
3535	0	0	0	0	511	514
3536	0	0	0	0	508	513
3537	0	0	0	0	510	511
3538	0	0	0	0	510	511
3539	0	0	0	0	508	512
3540	0	0	0	0	508	511
3541	0	0	0	0	511	512
3542	0	0	0	0	510	514
3543	0	0	0	0	507	514
3544	0	0	0	0	509	511
3545	0	0	0	0	509	511
3546	0	0	0	0	507	514
3547	0	0	0	0	508	515
3548	0	0	0	0	504	510
3549	0	0	0	0	507	510
3550	0	0	0	0	509	512
3551	0	0	0	0	512	510
3552	0	0	0	0	514	511
3553	0	0	0	0	511	513
3554	0	0	0	0	514	512
3555	0	0	0	0	519	513
3556	0	0	0	0	515	511
3557	0	0	0	0	510	512
3558	0	0	0	0	504	511
3559	0	0	0	0	505	511
3560	0	0	0	0	511	513
3561	0	0	0	0	509	512
3562	0	0	0	0	507	509
3563	0	0	0	0	507	511
3564	0	0	0	0	512	513
3565	0	0	0	0	515	512
3566	0	0	0	0	515	512
3567	0	0	0	0	506	513
3568	0	0	0	0	508	514
3569	0	0	0	0	507	516
3570	0	0	0	0	507	513
3571	0	0	0	0	505	513
3572	0	0	0	0	507	511
3573	0	0	0	0	504	514
3574	0	0	0	0	505	512
3575	0	0	0	0	509	514
3576	0	0	0	0	510	512
3577	0	0	0	0	509	511
3578	0	0	0	0	513	513
3579	0	0	0	0	510	511
3580	0	0	0	0	510	509
3581	0	0	0	0	508	513
3582	0	0	0	0	512	513
3583	0	0	0	0	515	513
3584	0	0	0	0	517	513
3585	0	0	0	0	518	513
3586	0	0	0	0	511	510
3587	0	0	0	0	511	512
3588	0	0	0	0	509	511
3589	0	0	0	0	505	513
3590	0	0	0	0	508	511
3591	0	0	0	0	510	511
3592	0	0	0	0	509	513
3593	0	0	0	0	511	513
3594	0	0	0	0	508	512
3595	0	0	0	0	510	512
3596	0	0	0	0	506	511
3597	0	0	0	0	505	513
3598	0	0	0	0	507	511
3599	0	0	0	0	508	512
3600	0	0	0	0	508	512
3601	0	0	0	0	504	512
3602	0	0	0	0	511	513
3603	0	0	0	0	513	515
3604	0	0	0	0	516	513
3605	0	0	0	0	518	512
3606	0	0	0	0	515	512
3607	0	0	0	0	512	513
3608	0	0	0	0	506	511
3609	0	0	0	0	502	513
3610	0	0	0	0	502	513
3611	0	0	0	0	506	513
3612	0	0	0	0	513	513
3613	0	0	0	0	512	512
3614	0	0	0	0	508	513
3615	0	0	0	0	507	512
3616	0	0	0	0	506	514
3617	0	0	0	0	511	510
3618	0	0	0	0	509	512
3619	0	0	0	0	511	511
3620	0	0	0	0	509	510
3621	0	0	0	0	509	508
3622	0	0	0	0	509	509
3623	0	0	0	0	508	514
3624	0	0	0	0	510	513
3625	0	0	0	0	511	513
3626	0	0	0	0	510	513
3627	0	0	0	0	510	511
3628	0	0	0	0	511	512
3629	0	0	0	0	511	513
3630	0	0	0	0	508	513
3631	0	0	0	0	509	513
3632	0	0	0	0	510	513
3633	0	0	0	0	511	512
3634	0	0	0	0	510	511
3635	0	0	0	0	509	511
3636	0	0	0	0	509	512
3637	0	0	0	0	509	512
3638	0	0	0	0	511	512
3639	0	0	0	0	509	512
3640	0	0	0	0	508	514
3641	0	0	0	0	508	513
3642	0	0	0	0	508	511
3643	0	0	0	0	508	512
3644	0	0	0	0	509	513
3645	0	0	0	0	509	513
3646	0	0	0	0	510	512
3647	0	0	0	0	512	513
3648	0	0	0	0	512	512
3649	0	0	0	0	510	512
3650	0	0	0	0	512	514
3651	0	0	0	0	511	513
3652	0	0	0	0	509	511
3653	0	0	0	0	508	512
3654	0	0	0	0	510	513
3655	0	0	0	0	510	513
3656	0	0	0	0	509	512
3657	0	0	0	0	512	512
3658	0	0	0	0	511	512
3659	0	0	0	0	511	513
3660	0	0	0	0	512	515
3661	0	0	0	0	510	513
3662	0	0	0	0	507	515
3663	0	0	0	0	506	513
3664	0	0	0	0	507	512
3665	0	0	0	0	509	511
3666	0	0	0	0	508	513
3667	0	0	0	0	511	513
3668	0	0	0	0	511	514
3669	0	0	0	0	512	512
3670	0	0	0	0	513	512
3671	0	0	0	0	511	511
3672	0	0	0	0	508	511
3673	0	0	0	0	509	511
3674	0	0	0	0	508	512
3675	0	0	0	0	509	512
3676	0	0	0	0	511	511
3677	0	0	0	0	507	510
3678	0	0	0	0	509	512
3679	0	0	0	0	509	512
3680	0	0	0	0	510	513
3681	0	0	0	0	509	512
3682	0	0	0	0	511	513
3683	0	0	0	0	511	512
3684	0	0	0	0	509	513
3685	0	0	0	0	512	512
3686	0	0	0	0	510	511
3687	0	0	0	0	509	511
3688	0	0	0	0	505	512
3689	0	0	0	0	507	513
3690	0	0	0	0	508	512
3691	0	0	0	0	508	513
3692	0	0	0	0	511	511
3693	0	0	0	0	513	513
3694	0	0	0	0	512	513
3695	0	0	0	0	515	513
3696	0	0	0	0	513	512
3697	0	0	0	0	513	512
3698	0	0	0	0	511	511
3699	0	0	0	0	510	510
3700	0	0	0	0	508	512
3701	0	0	0	0	508	513
3702	0	0	0	0	508	513
3703	0	0	0	0	507	512
3704	0	0	0	0	506	513
3705	0	0	0	0	505	511
3706	0	0	0	0	505	513
3707	0	0	0	0	510	515
3708	0	0	0	0	509	515
3709	0	0	0	0	508	513
3710	0	0	0	0	505	511
3711	0	0	0	0	510	511
3712	0	0	0	0	513	512
3713	0	0	0	0	511	511
3714	0	0	0	0	509	512
3715	0	0	0	0	510	513
3716	0	0	0	0	512	512
3717	0	0	0	0	518	512
3718	0	0	0	0	519	511
3719	0	0	0	0	514	512
3720	0	0	0	0	505	513
3721	0	0	0	0	507	511
3722	0	0	0	0	505	513
3723	0	0	0	0	502	512
3724	0	0	0	0	503	513
3725	0	0	0	0	507	512
3726	0	0	0	0	511	512
3727	0	0	0	0	511	512
3728	0	0	0	0	515	512
3729	0	0	0	0	511	512
3730	0	0	0	0	507	512
3731	0	0	0	0	504	511
3732	0	0	0	0	510	512
3733	0	0	0	0	511	512
3734	0	0	0	0	509	513
3735	0	0	0	0	509	513
3736	0	0	0	0	508	512
3737	0	0	0	0	512	511
3738	0	0	0	0	512	509
3739	0	0	0	0	511	513
3740	0	0	0	0	511	512
3741	0	0	0	0	511	512
3742	0	0	0	0	508	509
3743	0	0	0	0	507	512
3744	0	0	0	0	510	513
3745	0	0	0	0	511	512
3746	0	0	0	0	511	512
3747	0	0	0	0	508	513
3748	0	0	0	0	508	513
3749	0	0	0	0	509	515
3750	0	0	0	0	510	515
3751	0	0	0	0	508	512
3752	0	0	0	0	510	514
3753	0	0	0	0	508	511
3754	0	0	0	0	507	512
3755	0	0	0	0	509	513
3756	0	0	0	0	511	511
3757	0	0	0	0	509	512
3758	0	0	0	0	509	511
3759	0	0	0	0	511	512
3760	0	0	0	0	512	512
3761	0	0	0	0	510	511
3762	0	0	0	0	511	514
3763	0	0	0	0	512	510
3764	0	0	0	0	512	511
3765	0	0	0	0	510	513
3766	0	0	0	0	507	514
3767	0	0	0	0	508	515
3768	0	0	0	0	508	512
3769	0	0	0	0	507	510
3770	0	0	0	0	510	511
3771	0	0	0	0	511	513
3772	0	0	0	0	512	514
3773	0	0	0	0	512	513
3774	0	0	0	0	511	514
3775	0	0	0	0	511	512
3776	0	0	0	0	508	512
3777	0	0	0	0	505	512
3778	0	0	0	0	506	512
3779	0	0	0	0	511	513
3780	0	0	0	0	511	513
3781	0	0	0	0	510	511
3782	0	0	0	0	507	512
3783	0	0	0	0	508	512
3784	0	0	0	0	507	513
3785	0	0	0	0	505	512
3786	0	0	0	0	507	511
3787	0	0	0	0	508	513
3788	0	0	0	0	508	513
3789	0	0	0	0	510	512
3790	0	0	0	0	511	512
3791	0	0	0	0	514	512
3792	0	0	0	0	514	512
3793	0	0	0	0	514	513
3794	0	0	0	0	510	514
3795	0	0	0	0	512	512
3796	0	0	0	0	511	514
3797	0	0	0	0	507	512
3798	0	0	0	0	505	513
3799	0	0	0	0	510	512
3800	0	0	0	0	510	511
3801	0	0	0	0	509	511
3802	0	0	0	0	504	512
3803	0	0	0	0	504	512
3804	0	0	0	0	510	512
3805	0	0	0	0	516	512
3806	0	0	0	0	516	512
3807	0	0	0	0	515	513
3808	0	0	0	0	515	512
3809	0	0	0	0	514	512
3810	0	0	0	0	512	514
3811	0	0	0	0	508	514
3812	0	0	0	0	505	512
3813	0	0	0	0	506	512
3814	0	0	0	0	507	512
3815	0	0	0	0	504	513
3816	0	0	0	0	506	513
3817	0	0	0	0	511	512
3818	0	0	0	0	512	511
3819	0	0	0	0	515	514
3820	0	0	0	0	510	514
3821	0	0	0	0	506	514
3822	0	0	0	0	506	512
3823	0	0	0	0	505	512
3824	0	0	0	0	506	512
3825	0	0	0	0	509	512
3826	0	0	0	0	510	511
3827	0	0	0	0	511	513
3828	0	0	0	0	514	513
3829	0	0	0	0	515	511
3830	0	0	0	0	512	511
3831	0	0	0	0	511	512
3832	0	0	0	0	510	512
3833	0	0	0	0	514	512
3834	0	0	0	0	511	510
3835	0	0	0	0	505	511
3836	0	0	0	0	506	512
3837	0	0	0	0	505	511
3838	0	0	0	0	505	513
3839	0	0	0	0	510	513
3840	0	0	0	0	511	514
3841	0	0	0	0	511	512
3842	0	0	0	0	508	511
3843	0	0	0	0	507	514
3844	0	0	0	0	503	513
3845	0	0	0	0	503	514
3846	0	0	0	0	508	510
3847	0	0	0	0	512	511
3848	0	0	0	0	519	511
3849	0	0	0	0	517	513
3850	0	0	0	0	518	512
3851	0	0	0	0	511	512
3852	0	0	0	0	509	512
3853	0	0	0	0	505	513
3854	0	0	0	0	504	513
3855	0	0	0	0	507	511
3856	0	0	0	0	506	512
3857	0	0	0	0	508	512
3858	0	0	0	0	512	512
3859	0	0	0	0	516	510
3860	0	0	0	0	514	511
3861	0	0	0	0	509	510
3862	0	0	0	0	505	513
3863	0	0	0	0	504	513
3864	0	0	0	0	504	512
3865	0	0	0	0	505	513
3866	0	0	0	0	508	511
3867	0	0	0	0	504	513
3868	0	0	0	0	504	514
3869	0	0	0	0	504	513
3870	0	0	0	0	503	515
3871	0	0	0	0	504	513
3872	0	0	0	0	502	512
3873	0	0	0	0	505	514
3874	0	0	0	0	506	514
3875	0	0	0	0	507	515
3876	0	0	0	0	505	512
3877	0	0	0	0	507	512
3878	0	0	0	0	509	512
3879	0	0	0	0	512	515
3880	0	0	0	0	513	514
3881	0	0	0	0	513	513
3882	0	0	0	0	516	515
3883	0	0	0	0	519	511
3884	0	0	0	0	517	512
3885	0	0	0	0	516	512
3886	0	0	0	0	518	514
3887	0	0	0	0	518	512
3888	0	0	0	0	517	512
3889	0	0	0	0	521	516
3890	0	0	0	0	520	515
3891	0	0	0	0	519	514
3892	0	0	0	0	519	513
3893	0	0	0	0	517	515
3894	0	0	0	0	516	515
3895	0	0	0	0	514	515
3896	0	0	0	0	512	513
3897	0	0	0	0	514	509
3898	0	0	0	0	509	510
3899	0	0	0	0	510	511
3900	0	0	0	0	510	511
3901	0	0	0	0	507	510
3902	0	0	0	0	509	511
3903	0	0	0	0	510	508
3904	0	0	0	0	512	508
3905	0	0	0	0	510	510
3906	0	0	0	0	511	508
3907	0	0	0	0	507	507
3908	0	0	0	0	507	508
3909	0	0	0	0	508	511
3910	0	0	0	0	508	507
3911	0	0	0	0	507	508
3912	0	0	0	0	508	511
3913	0	0	0	0	502	508
3914	0	0	0	0	504	508
3915	0	0	0	0	502	509
3916	0	0	0	0	504	509
3917	0	0	0	0	505	512
3918	0	0	0	0	506	512
3919	0	0	0	0	504	514
3920	0	0	0	0	508	514
3921	0	0	0	0	510	515
3922	0	0	0	0	514	512
3923	0	0	0	0	511	510
3924	0	0	0	0	505	513
3925	0	0	0	0	503	516
3926	0	0	0	0	508	514
3927	0	0	0	0	507	513
3928	0	0	0	0	508	516
3929	0	0	0	0	510	515
3930	0	0	0	0	517	514
3931	0	0	0	0	516	511
3932	0	0	0	0	512	514
3933	0	0	0	0	509	516
3934	0	0	0	0	509	514
3935	0	0	0	0	509	514
3936	0	0	0	0	508	515
3937	0	0	0	0	507	514
3938	0	0	0	0	507	515
3939	0	0	0	0	507	514
3940	0	0	0	0	507	513
3941	0	0	0	0	508	512
3942	0	0	0	0	513	513
3943	0	0	0	0	511	513
3944	0	0	0	0	510	511
3945	0	0	0	0	512	510
3946	0	0	0	0	512	513
3947	0	0	0	0	511	514
3948	0	0	0	0	510	513
3949	0	0	0	0	507	512
3950	0	0	0	0	510	512
3951	0	0	0	0	512	512
3952	0	0	0	0	511	512
3953	0	0	0	0	509	511
3954	0	0	0	0	509	513
3955	0	0	0	0	508	512
3956	0	0	0	0	508	512
3957	0	0	0	0	507	511
3958	0	0	0	0	504	512
3959	0	0	0	0	506	512
3960	0	0	0	0	508	512
3961	0	0	0	0	505	514
3962	0	0	0	0	509	513
3963	0	0	0	0	508	515
3964	0	0	0	0	506	512
3965	0	0	0	0	510	513
3966	0	0	0	0	510	512
3967	0	0	0	0	513	512
3968	0	0	0	0	514	513
3969	0	0	0	0	516	511
3970	0	0	0	0	515	511
3971	0	0	0	0	514	510
3972	0	0	0	0	511	513
3973	0	0	0	0	510	513
3974	0	0	0	0	513	511
3975	0	0	0	0	515	511
3976	0	0	0	0	511	511
3977	0	0	0	0	507	512
3978	0	0	0	0	504	511
3979	0	0	0	0	503	513
3980	0	0	0	0	504	512
3981	0	0	0	0	501	512
3982	0	0	0	0	504	513
3983	0	0	0	0	507	512
3984	0	0	0	0	511	511
3985	0	0	0	0	515	512
3986	0	0	0	0	511	512
3987	0	0	0	0	511	512
3988	0	0	0	0	511	513
3989	0	0	0	0	511	511
3990	0	0	0	0	508	512
3991	0	0	0	0	508	513
3992	0	0	0	0	507	514
3993	0	0	0	0	512	513
3994	0	0	0	0	509	511
3995	0	0	0	0	506	512
3996	0	0	0	0	503	511
3997	0	0	0	0	509	509
3998	0	0	0	0	512	510
3999	0	0	0	0	522	513
4000	0	0	0	0	523	516
4001	0	0	0	0	517	512
4002	0	0	0	0	515	512
4003	0	0	0	0	513	513
4004	0	0	0	0	511	513
4005	0	0	0	0	508	511
4006	0	0	0	0	502	511
4007	0	0	0	0	504	513
4008	0	0	0	0	505	512
4009	0	0	0	0	505	513
4010	0	0	0	0	505	513
4011	0	0	0	0	508	514
4012	0	0	0	0	506	512
4013	0	0	0	0	509	512
4014	0	0	0	0	508	513
4015	0	0	0	0	508	513
4016	0	0	0	0	508	512
4017	0	0	0	0	510	512
4018	0	0	0	0	511	512
4019	0	0	0	0	507	512
4020	0	0	0	0	508	511
4021	0	0	0	0	508	512
4022	0	0	0	0	512	512
4023	0	0	0	0	518	512
4024	0	0	0	0	517	513
4025	0	0	0	0	516	514
4026	0	0	0	0	514	513
4027	0	0	0	0	519	514
4028	0	0	0	0	515	511
4029	0	0	0	0	511	511
4030	0	0	0	0	508	511
4031	0	0	0	0	507	509
4032	0	0	0	0	507	512
4033	0	0	0	0	506	511
4034	0	0	0	0	505	513
4035	0	0	0	0	504	512
4036	0	0	0	0	504	511
4037	0	0	0	0	504	511
4038	0	0	0	0	507	512
4039	0	0	0	0	508	514
4040	0	0	0	0	510	512
4041	0	0	0	0	509	513
4042	0	0	0	0	510	512
4043	0	0	0	0	510	513
4044	0	0	0	0	510	511
4045	0	0	0	0	511	513
4046	0	0	0	0	511	512
4047	0	0	0	0	509	515
4048	0	0	0	0	511	514
4049	0	0	0	0	511	514
4050	0	0	0	0	511	513
4051	0	0	0	0	509	512
4052	0	0	0	0	510	512
4053	0	0	0	0	511	514
4054	0	0	0	0	509	513
4055	0	0	0	0	510	511
4056	0	0	0	0	508	511
4057	0	0	0	0	509	510
4058	0	0	0	0	512	513
4059	0	0	0	0	512	512
4060	0	0	0	0	511	513
4061	0	0	0	0	510	510
4062	0	0	0	0	509	512
4063	0	0	0	0	510	511
4064	0	0	0	0	507	513
4065	0	0	0	0	508	513
4066	0	0	0	0	509	510
4067	0	0	0	0	508	511
4068	0	0	0	0	506	512
4069	0	0	0	0	510	510
4070	0	0	0	0	515	513
4071	0	0	0	0	519	512
4072	0	0	0	0	510	510
4073	0	0	0	0	507	511
4074	0	0	0	0	506	512
4075	0	0	0	0	512	513
4076	0	0	0	0	514	512
4077	0	0	0	0	513	515
4078	0	0	0	0	510	514
4079	0	0	0	0	508	511
4080	0	0	0	0	510	510
4081	0	0	0	0	509	512
4082	0	0	0	0	506	512
4083	0	0	0	0	508	513
4084	0	0	0	0	508	512
4085	0	0	0	0	512	512
4086	0	0	0	0	512	513
4087	0	0	0	0	511	512
4088	0	0	0	0	512	511
4089	0	0	0	0	507	512
4090	0	0	0	0	505	511
4091	0	0	0	0	506	513
4092	0	0	0	0	511	515
4093	0	0	0	0	508	511
4094	0	0	0	0	507	511
4095	0	0	0	0	511	512
4096	0	0	0	0	513	511
4097	0	0	0	0	509	511
4098	0	0	0	0	509	512
4099	0	0	0	0	508	512
4100	0	0	0	0	511	512
4101	0	0	0	0	510	511
4102	0	0	0	0	512	512
4103	0	0	0	0	514	512
4104	0	0	0	0	512	512
4105	0	0	0	0	510	511
4106	0	0	0	0	514	511
4107	0	0	0	0	512	513
4108	0	0	0	0	511	512
4109	0	0	0	0	506	512
4110	0	0	0	0	505	513
4111	0	0	0	0	505	514
4112	0	0	0	0	510	513
4113	0	0	0	0	510	512
4114	0	0	0	0	508	515
4115	0	0	0	0	511	515
4116	0	0	0	0	512	512
4117	0	0	0	0	511	513
4118	0	0	0	0	509	512
4119	0	0	0	0	505	511
4120	0	0	0	0	505	511
4121	0	0	0	0	508	510
4122	0	0	0	0	508	511
4123	0	0	0	0	507	511
4124	0	0	0	0	508	511
4125	0	0	0	0	510	512
4126	0	0	0	0	509	513
4127	0	0	0	0	509	513
4128	0	0	0	0	509	515
4129	0	0	0	0	509	512
4130	0	0	0	0	509	513
4131	0	0	0	0	508	513
4132	0	0	0	0	511	514
4133	0	0	0	0	512	512
4134	0	0	0	0	515	512
4135	0	0	0	0	514	510
4136	0	0	0	0	512	512
4137	0	0	0	0	511	511
4138	0	0	0	0	511	511
4139	0	0	0	0	508	512
4140	0	0	0	0	507	511
4141	0	0	0	0	506	511
4142	0	0	0	0	508	511
4143	0	0	0	0	510	512
4144	0	0	0	0	509	513
4145	0	0	0	0	508	512
4146	0	0	0	0	511	512
4147	0	0	0	0	511	514
4148	0	0	0	0	511	512
4149	0	0	0	0	510	512
4150	0	0	0	0	510	513
4151	0	0	0	0	511	513
4152	0	0	0	0	511	514
4153	0	0	0	0	510	512
4154	0	0	0	0	509	512
4155	0	0	0	0	510	513
4156	0	0	0	0	509	511
4157	0	0	0	0	508	510
4158	0	0	0	0	509	511
4159	0	0	0	0	508	512
4160	0	0	0	0	511	512
4161	0	0	0	0	510	513
4162	0	0	0	0	510	513
4163	0	0	0	0	509	511
4164	0	0	0	0	509	512
4165	0	0	0	0	509	515
4166	0	0	0	0	511	514
4167	0	0	0	0	511	513
4168	0	0	0	0	509	513
4169	0	0	0	0	510	513
4170	0	0	0	0	509	512
4171	0	0	0	0	510	511
4172	0	0	0	0	511	512
4173	0	0	0	0	512	512
4174	0	0	0	0	511	512
4175	0	0	0	0	510	513
4176	0	0	0	0	510	512
4177	0	0	0	0	508	513
4178	0	0	0	0	508	512
4179	0	0	0	0	511	512
4180	0	0	0	0	508	511
4181	0	0	0	0	505	512
4182	0	0	0	0	507	512
4183	0	0	0	0	513	512
4184	0	0	0	0	514	511
4185	0	0	0	0	512	510
4186	0	0	0	0	512	511
4187	0	0	0	0	509	511
4188	0	0	0	0	507	512
4189	0	0	0	0	507	511
4190	0	0	0	0	505	514
4191	0	0	0	0	504	513
4192	0	0	0	0	509	513
4193	0	0	0	0	515	514
4194	0	0	0	0	515	514
4195	0	0	0	0	512	514
4196	0	0	0	0	507	515
4197	0	0	0	0	506	513
4198	0	0	0	0	505	515
4199	0	0	0	0	508	515
4200	0	0	0	0	510	513
4201	0	0	0	0	512	512
4202	0	0	0	0	512	511
4203	0	0	0	0	512	510
4204	0	0	0	0	508	511
4205	0	0	0	0	509	510
4206	0	0	0	0	508	512
4207	0	0	0	0	510	513
4208	0	0	0	0	510	513
4209	0	0	0	0	508	512
4210	0	0	0	0	506	512
4211	0	0	0	0	510	514
4212	0	0	0	0	508	513
4213	0	0	0	0	510	513
4214	0	0	0	0	511	514
4215	0	0	0	0	511	513
4216	0	0	0	0	511	515
4217	0	0	0	0	510	512
4218	0	0	0	0	509	512
4219	0	0	0	0	507	512
4220	0	0	0	0	507	515
4221	0	0	0	0	507	513
4222	0	0	0	0	504	513
4223	0	0	0	0	507	512
4224	0	0	0	0	510	511
4225	0	0	0	0	512	511
4226	0	0	0	0	510	511
4227	0	0	0	0	511	512
4228	0	0	0	0	514	511
4229	0	0	0	0	515	512
4230	0	0	0	0	511	512
4231	0	0	0	0	510	513
4232	0	0	0	0	513	513
4233	0	0	0	0	510	510
4234	0	0	0	0	508	512
4235	0	0	0	0	509	511
4236	0	0	0	0	507	512
4237	0	0	0	0	508	512
4238	0	0	0	0	507	515
4239	0	0	0	0	508	513
4240	0	0	0	0	510	511
4241	0	0	0	0	511	512
4242	0	0	0	0	511	512
4243	0	0	0	0	510	512
4244	0	0	0	0	510	513
4245	0	0	0	0	511	512
4246	0	0	0	0	511	512
4247	0	0	0	0	511	514
4248	0	0	0	0	511	512
4249	0	0	0	0	510	514
4250	0	0	0	0	507	513
4251	0	0	0	0	506	512
4252	0	0	0	0	509	512
4253	0	0	0	0	506	514
4254	0	0	0	0	507	513
4255	0	0	0	0	511	512
4256	0	0	0	0	516	512
4257	0	0	0	0	513	514
4258	0	0	0	0	511	515
4259	0	0	0	0	508	512
4260	0	0	0	0	507	513
4261	0	0	0	0	505	513
4262	0	0	0	0	508	511
4263	0	0	0	0	509	512
4264	0	0	0	0	510	510
4265	0	0	0	0	509	513
4266	0	0	0	0	514	512
4267	0	0	0	0	519	512
4268	0	0	0	0	515	513
4269	0	0	0	0	513	512
4270	0	0	0	0	511	510
4271	0	0	0	0	508	509
4272	0	0	0	0	506	512
4273	0	0	0	0	509	511
4274	0	0	0	0	508	512
4275	0	0	0	0	504	510
4276	0	0	0	0	505	512
4277	0	0	0	0	510	513
4278	0	0	0	0	513	513
4279	0	0	0	0	515	512
4280	0	0	0	0	514	512
4281	0	0	0	0	511	512
4282	0	0	0	0	508	511
4283	0	0	0	0	509	513
4284	0	0	0	0	507	513
4285	0	0	0	0	507	511
4286	0	0	0	0	505	512
4287	0	0	0	0	506	512
4288	0	0	0	0	506	512
4289	0	0	0	0	509	512
4290	0	0	0	0	505	514
4291	0	0	0	0	505	514
4292	0	0	0	0	511	513
4293	0	0	0	0	510	510
4294	0	0	0	0	512	513
4295	0	0	0	0	510	514
4296	0	0	0	0	512	514
4297	0	0	0	0	511	512
4298	0	0	0	0	512	511
4299	0	0	0	0	510	511
4300	0	0	0	0	511	514
4301	0	0	0	0	510	513
4302	0	0	0	0	513	513
4303	0	0	0	0	511	512
4304	0	0	0	0	511	512
4305	0	0	0	0	512	515
4306	0	0	0	0	512	511
4307	0	0	0	0	511	512
4308	0	0	0	0	507	513
4309	0	0	0	0	510	512
4310	0	0	0	0	508	511
4311	0	0	0	0	507	512
4312	0	0	0	0	510	513
4313	0	0	0	0	510	514
4314	0	0	0	0	509	511
4315	0	0	0	0	511	515
4316	0	0	0	0	511	512
4317	0	0	0	0	509	513
4318	0	0	0	0	510	512
4319	0	0	0	0	512	511
4320	0	0	0	0	511	511
4321	0	0	0	0	510	512
4322	0	0	0	0	510	513
4323	0	0	0	0	509	512
4324	0	0	0	0	510	512
4325	0	0	0	0	510	512
4326	0	0	0	0	508	511
4327	0	0	0	0	508	513
4328	0	0	0	0	509	513
4329	0	0	0	0	508	513
4330	0	0	0	0	511	512
4331	0	0	0	0	509	512
4332	0	0	0	0	508	513
4333	0	0	0	0	508	514
4334	0	0	0	0	510	516
4335	0	0	0	0	511	513
4336	0	0	0	0	508	513
4337	0	0	0	0	509	512
4338	0	0	0	0	511	511
4339	0	0	0	0	507	510
4340	0	0	0	0	509	510
4341	0	0	0	0	507	510
4342	0	0	0	0	505	510
4343	0	0	0	0	508	512
4344	0	0	0	0	508	513
4345	0	0	0	0	510	512
4346	0	0	0	0	512	512
4347	0	0	0	0	512	513
4348	0	0	0	0	512	512
4349	0	0	0	0	509	511
4350	0	0	0	0	511	511
4351	0	0	0	0	511	512
4352	0	0	0	0	511	511
4353	0	0	0	0	512	512
4354	0	0	0	0	512	512
4355	0	0	0	0	513	513
4356	0	0	0	0	513	511
4357	0	0	0	0	516	512
4358	0	0	0	0	512	513
4359	0	0	0	0	508	513
4360	0	0	0	0	508	513
4361	0	0	0	0	505	513
4362	0	0	0	0	500	512
4363	0	0	0	0	503	513
4364	0	0	0	0	513	512
4365	0	0	0	0	517	514
4366	0	0	0	0	516	513
4367	0	0	0	0	512	513
4368	0	0	0	0	509	514
4369	0	0	0	0	510	511
4370	0	0	0	0	506	511
4371	0	0	0	0	508	510
4372	0	0	0	0	504	511
4373	0	0	0	0	505	510
4374	0	0	0	0	505	514
4375	0	0	0	0	510	511
4376	0	0	0	0	511	511
4377	0	0	0	0	510	511
4378	0	0	0	0	509	513
4379	0	0	0	0	510	512
4380	0	0	0	0	511	512
4381	0	0	0	0	509	511
4382	0	0	0	0	510	514
4383	0	0	0	0	509	512
4384	0	0	0	0	508	511
4385	0	0	0	0	506	513
4386	0	0	0	0	510	512
4387	0	0	0	0	508	510
4388	0	0	0	0	509	512
4389	0	0	0	0	512	514
4390	0	0	0	0	510	514
4391	0	0	0	0	508	514
4392	0	0	0	0	508	512
4393	0	0	0	0	507	510
4394	0	0	0	0	510	513
4395	0	0	0	0	511	512
4396	0	0	0	0	511	513
4397	0	0	0	0	513	515
4398	0	0	0	0	521	514
4399	0	0	0	0	525	513
4400	0	0	0	0	515	511
4401	0	0	0	0	506	513
4402	0	0	0	0	504	511
4403	0	0	0	0	504	510
4404	0	0	0	0	504	513
4405	0	0	0	0	502	512
4406	0	0	0	0	502	511
4407	0	0	0	0	504	512
4408	0	0	0	0	507	510
4409	0	0	0	0	508	511
4410	0	0	0	0	508	514
4411	0	0	0	0	510	512
4412	0	0	0	0	510	513
4413	0	0	0	0	511	512
4414	0	0	0	0	512	513
4415	0	0	0	0	511	513
4416	0	0	0	0	512	512
4417	0	0	0	0	515	512
4418	0	0	0	0	509	510
4419	0	0	0	0	510	511
4420	0	0	0	0	513	511
4421	0	0	0	0	511	511
4422	0	0	0	0	510	513
4423	0	0	0	0	508	513
4424	0	0	0	0	513	512
4425	0	0	0	0	512	512
4426	0	0	0	0	512	512
4427	0	0	0	0	510	511
4428	0	0	0	0	512	512
4429	0	0	0	0	508	513
4430	0	0	0	0	507	514
4431	0	0	0	0	504	514
4432	0	0	0	0	507	515
4433	0	0	0	0	507	513
4434	0	0	0	0	505	512
4435	0	0	0	0	505	514
4436	0	0	0	0	509	511
4437	0	0	0	0	513	512
4438	0	0	0	0	515	512
4439	0	0	0	0	514	514
4440	0	0	0	0	511	510
4441	0	0	0	0	510	511
4442	0	0	0	0	508	512
4443	0	0	0	0	510	514
4444	0	0	0	0	510	512
4445	0	0	0	0	508	512
4446	0	0	0	0	506	513
4447	0	0	0	0	507	515
4448	0	0	0	0	510	512
4449	0	0	0	0	511	513
4450	0	0	0	0	509	511
4451	0	0	0	0	509	514
4452	0	0	0	0	511	511
4453	0	0	0	0	514	510
4454	0	0	0	0	512	512
4455	0	0	0	0	511	511
4456	0	0	0	0	513	512
4457	0	0	0	0	512	512
4458	0	0	0	0	512	511
4459	0	0	0	0	504	512
4460	0	0	0	0	502	515
4461	0	0	0	0	505	512
4462	0	0	0	0	509	511
4463	0	0	0	0	513	513
4464	0	0	0	0	511	511
4465	0	0	0	0	513	514
4466	0	0	0	0	519	512
4467	0	0	0	0	516	512
4468	0	0	0	0	512	512
4469	0	0	0	0	510	512
4470	0	0	0	0	507	513
4471	0	0	0	0	508	511
4472	0	0	0	0	509	512
4473	0	0	0	0	506	512
4474	0	0	0	0	506	512
4475	0	0	0	0	510	511
4476	0	0	0	0	508	512
4477	0	0	0	0	512	512
4478	0	0	0	0	509	514
4479	0	0	0	0	510	515
4480	0	0	0	0	507	512
4481	0	0	0	0	505	513
4482	0	0	0	0	504	514
4483	0	0	0	0	507	513
4484	0	0	0	0	508	512
4485	0	0	0	0	508	511
4486	0	0	0	0	507	513
4487	0	0	0	0	504	514
4488	0	0	0	0	507	511
4489	0	0	0	0	512	510
4490	0	0	0	0	519	512
4491	0	0	0	0	525	514
4492	0	0	0	0	522	514
4493	0	0	0	0	512	512
4494	0	0	0	0	508	512
4495	0	0	0	0	511	511
4496	0	0	0	0	512	510
4497	0	0	0	0	512	512
4498	0	0	0	0	509	511
4499	0	0	0	0	505	514
4500	0	0	0	0	505	512
4501	0	0	0	0	504	513
4502	0	0	0	0	504	513
4503	0	0	0	0	510	514
4504	0	0	0	0	513	514
4505	0	0	0	0	511	513
4506	0	0	0	0	512	511
4507	0	0	0	0	510	513
4508	0	0	0	0	511	511
4509	0	0	0	0	511	512
4510	0	0	0	0	512	511
4511	0	0	0	0	511	512
4512	0	0	0	0	508	512
4513	0	0	0	0	508	512
4514	0	0	0	0	505	512
4515	0	0	0	0	510	511
4516	0	0	0	0	508	513
4517	0	0	0	0	506	515
4518	0	0	0	0	503	515
4519	0	0	0	0	504	513
4520	0	0	0	0	503	513
4521	0	0	0	0	507	513
4522	0	0	0	0	504	512
4523	0	0	0	0	507	513
4524	0	0	0	0	509	512
4525	0	0	0	0	509	511
4526	0	0	0	0	511	510
4527	0	0	0	0	517	512
4528	0	0	0	0	517	512
4529	0	0	0	0	512	513
4530	0	0	0	0	513	516
4531	0	0	0	0	514	511
4532	0	0	0	0	512	514
4533	0	0	0	0	509	515
4534	0	0	0	0	508	514
4535	0	0	0	0	509	511
4536	0	0	0	0	509	511
4537	0	0	0	0	509	511
4538	0	0	0	0	509	512
4539	0	0	0	0	508	511
4540	0	0	0	0	507	511
4541	0	0	0	0	509	510
4542	0	0	0	0	508	510
4543	0	0	0	0	511	511
4544	0	0	0	0	512	513
4545	0	0	0	0	510	513
4546	0	0	0	0	508	515
4547	0	0	0	0	508	512
4548	0	0	0	0	512	512
4549	0	0	0	0	511	513
4550	0	0	0	0	512	514
4551	0	0	0	0	511	512
4552	0	0	0	0	508	514
4553	0	0	0	0	508	515
4554	0	0	0	0	510	512
4555	0	0	0	0	514	512
4556	0	0	0	0	514	511
4557	0	0	0	0	510	515
4558	0	0	0	0	506	513
4559	0	0	0	0	510	511
4560	0	0	0	0	508	512
4561	0	0	0	0	508	510
4562	0	0	0	0	507	513
4563	0	0	0	0	505	513
4564	0	0	0	0	507	512
4565	0	0	0	0	512	514
4566	0	0	0	0	513	512
4567	0	0	0	0	513	515
4568	0	0	0	0	513	515
4569	0	0	0	0	511	513
4570	0	0	0	0	512	514
4571	0	0	0	0	512	512
4572	0	0	0	0	508	513
4573	0	0	0	0	505	510
4574	0	0	0	0	505	508
4575	0	0	0	0	504	508
4576	0	0	0	0	504	510
4577	0	0	0	0	506	510
4578	0	0	0	0	510	513
4579	0	0	0	0	508	512
4580	0	0	0	0	506	512
4581	0	0	0	0	506	513
4582	0	0	0	0	504	514
4583	0	0	0	0	502	512
4584	0	0	0	0	503	512
4585	0	0	0	0	503	512
4586	0	0	0	0	507	513
4587	0	0	0	0	507	515
4588	0	0	0	0	507	513
4589	0	0	0	0	508	512
4590	0	0	0	0	507	512
4591	0	0	0	0	506	514
4592	0	0	0	0	505	514
4593	0	0	0	0	504	510
4594	0	0	0	0	507	511
4595	0	0	0	0	513	515
4596	0	0	0	0	513	512
4597	0	0	0	0	516	513
4598	0	0	0	0	515	513
4599	0	0	0	0	515	514
4600	0	0	0	0	518	515
4601	0	0	0	0	517	512
4602	0	0	0	0	515	512
4603	0	0	0	0	518	510
4604	0	0	0	0	516	510
4605	0	0	0	0	518	512
4606	0	0	0	0	518	512
4607	0	0	0	0	517	513
4608	0	0	0	0	520	512
4609	0	0	0	0	523	512
4610	0	0	0	0	523	513
4611	0	0	0	0	518	514
4612	0	0	0	0	515	513
4613	0	0	0	0	517	513
4614	0	0	0	0	511	512
4615	0	0	0	0	510	512
4616	0	0	0	0	509	513
4617	0	0	0	0	507	511
4618	0	0	0	0	508	515
4619	0	0	0	0	509	512
4620	0	0	0	0	509	512
4621	0	0	0	0	505	510
4622	0	0	0	0	508	510
4623	0	0	0	0	508	512
4624	0	0	0	0	510	512
4625	0	0	0	0	505	512
4626	0	0	0	0	503	511
4627	0	0	0	0	507	512
4628	0	0	0	0	506	512
4629	0	0	0	0	502	513
4630	0	0	0	0	503	512
4631	0	0	0	0	505	514
4632	0	0	0	0	508	512
4633	0	0	0	0	507	513
4634	0	0	0	0	506	512
4635	0	0	0	0	510	512
4636	0	0	0	0	514	513
4637	0	0	0	0	510	513
4638	0	0	0	0	506	512
4639	0	0	0	0	504	516
4640	0	0	0	0	507	512
4641	0	0	0	0	511	510
4642	0	0	0	0	513	512
4643	0	0	0	0	512	513
4644	0	0	0	0	509	511
4645	0	0	0	0	507	512
4646	0	0	0	0	505	514
4647	0	0	0	0	504	512
4648	0	0	0	0	504	513
4649	0	0	0	0	507	512
4650	0	0	0	0	509	511
4651	0	0	0	0	508	511
4652	0	0	0	0	505	513
4653	0	0	0	0	506	511
4654	0	0	0	0	507	509
4655	0	0	0	0	511	510
4656	0	0	0	0	509	512
4657	0	0	0	0	512	513
4658	0	0	0	0	512	515
4659	0	0	0	0	514	511
4660	0	0	0	0	518	511
4661	0	0	0	0	515	511
4662	0	0	0	0	512	513
4663	0	0	0	0	513	514
4664	0	0	0	0	512	515
4665	0	0	0	0	508	515
4666	0	0	0	0	509	515
4667	0	0	0	0	508	513
4668	0	0	0	0	510	513
4669	0	0	0	0	510	516
4670	0	0	0	0	511	518
4671	0	0	0	0	508	513
4672	0	0	0	0	508	511
4673	0	0	0	0	508	509
4674	0	0	0	0	507	507
4675	0	0	0	0	510	509
4676	0	0	0	0	510	509
4677	0	0	0	0	511	513
4678	0	0	0	0	511	512
4679	0	0	0	0	510	512
4680	0	0	0	0	512	511
4681	0	0	0	0	510	515
4682	0	0	0	0	511	514
4683	0	0	0	0	510	513
4684	0	0	0	0	508	514
4685	0	0	0	0	507	511
4686	0	0	0	0	508	511
4687	0	0	0	0	511	513
4688	0	0	0	0	512	513
4689	0	0	0	0	509	514
4690	0	0	0	0	507	514
4691	0	0	0	0	508	516
4692	0	0	0	0	508	515
4693	0	0	0	0	510	515
4694	0	0	0	0	512	514
4695	0	0	0	0	513	514
4696	0	0	0	0	511	512
4697	0	0	0	0	512	514
4698	0	0	0	0	511	512
4699	0	0	0	0	510	512
4700	0	0	0	0	509	512
4701	0	0	0	0	505	514
4702	0	0	0	0	507	513
4703	0	0	0	0	508	513
4704	0	0	0	0	511	513
4705	0	0	0	0	510	513
4706	0	0	0	0	509	513
4707	0	0	0	0	508	515
4708	0	0	0	0	507	514
4709	0	0	0	0	509	513
4710	0	0	0	0	508	511
4711	0	0	0	0	508	510
4712	0	0	0	0	505	511
4713	0	0	0	0	506	508
4714	0	0	0	0	507	509
4715	0	0	0	0	511	511
4716	0	0	0	0	512	508
4717	0	0	0	0	517	505
4718	0	0	0	0	519	509
4719	0	0	0	0	518	508
4720	0	0	0	0	515	510
4721	0	0	0	0	511	511
4722	0	0	0	0	509	508
4723	0	0	0	0	504	509
4724	0	0	0	0	504	510
4725	0	0	0	0	505	508
4726	0	0	0	0	507	510
4727	0	0	0	0	508	511
4728	0	0	0	0	508	510
4729	0	0	0	0	506	508
4730	0	0	0	0	508	508
4731	0	0	0	0	510	512
4732	0	0	0	0	509	513
4733	0	0	0	0	510	511
4734	0	0	0	0	511	512
4735	0	0	0	0	515	512
4736	0	0	0	0	515	512
4737	0	0	0	0	510	515
4738	0	0	0	0	508	514
4739	0	0	0	0	508	515
4740	0	0	0	0	510	515
4741	0	0	0	0	507	515
4742	0	0	0	0	506	515
4743	0	0	0	0	506	514
4744	0	0	0	0	507	514
4745	0	0	0	0	506	516
4746	0	0	0	0	507	516
4747	0	0	0	0	505	515
4748	0	0	0	0	508	514
4749	0	0	0	0	505	511
4750	0	0	0	0	510	515
4751	0	0	0	0	515	515
4752	0	0	0	0	519	515
4753	0	0	0	0	513	514
4754	0	0	0	0	512	515
4755	0	0	0	0	515	515
4756	0	0	0	0	516	513
4757	0	0	0	0	511	512
4758	0	0	0	0	511	513
4759	0	0	0	0	511	512
4760	0	0	0	0	508	514
4761	0	0	0	0	509	510
4762	0	0	0	0	507	510
4763	0	0	0	0	506	510
4764	0	0	0	0	508	511
4765	0	0	0	0	507	511
4766	0	0	0	0	505	511
4767	0	0	0	0	505	513
4768	0	0	0	0	508	513
4769	0	0	0	0	508	511
4770	0	0	0	0	510	513
4771	0	0	0	0	511	513
4772	0	0	0	0	505	512
4773	0	0	0	0	508	513
4774	0	0	0	0	508	513
4775	0	0	0	0	506	512
4776	0	0	0	0	507	511
4777	0	0	0	0	509	511
4778	0	0	0	0	514	511
4779	0	0	0	0	516	511
4780	0	0	0	0	517	511
4781	0	0	0	0	516	508
4782	0	0	0	0	511	509
4783	0	0	0	0	511	510
4784	0	0	0	0	511	514
4785	0	0	0	0	511	514
4786	0	0	0	0	509	511
4787	0	0	0	0	507	513
4788	0	0	0	0	511	516
4789	0	0	0	0	512	515
4790	0	0	0	0	508	512
4791	0	0	0	0	505	512
4792	0	0	0	0	507	515
4793	0	0	0	0	508	513
4794	0	0	0	0	510	511
4795	0	0	0	0	509	512
4796	0	0	0	0	507	512
4797	0	0	0	0	509	512
4798	0	0	0	0	509	511
4799	0	0	0	0	512	512
4800	0	0	0	0	511	513
4801	0	0	0	0	510	512
4802	0	0	0	0	509	512
4803	0	0	0	0	508	511
4804	0	0	0	0	508	512
4805	0	0	0	0	508	512
4806	0	0	0	0	508	511
4807	0	0	0	0	510	512
4808	0	0	0	0	508	513
4809	0	0	0	0	511	514
4810	0	0	0	0	512	513
4811	0	0	0	0	509	512
4812	0	0	0	0	511	513
4813	0	0	0	0	510	512
4814	0	0	0	0	510	512
4815	0	0	0	0	511	512
4816	0	0	0	0	511	511
4817	0	0	0	0	507	512
4818	0	0	0	0	508	512
4819	0	0	0	0	508	514
4820	0	0	0	0	510	514
4821	0	0	0	0	512	514
4822	0	0	0	0	511	513
4823	0	0	0	0	512	513
4824	0	0	0	0	512	511
4825	0	0	0	0	511	510
4826	0	0	0	0	511	512
4827	0	0	0	0	510	511
4828	0	0	0	0	507	511
4829	0	0	0	0	508	512
4830	0	0	0	0	508	513
4831	0	0	0	0	506	513
4832	0	0	0	0	505	510
4833	0	0	0	0	502	511
4834	0	0	0	0	507	511
4835	0	0	0	0	512	512
4836	0	0	0	0	515	514
4837	0	0	0	0	516	512
4838	0	0	0	0	516	513
4839	0	0	0	0	520	514
4840	0	0	0	0	519	513
4841	0	0	0	0	511	512
4842	0	0	0	0	509	511
4843	0	0	0	0	511	514
4844	0	0	0	0	509	513
4845	0	0	0	0	508	512
4846	0	0	0	0	505	514
4847	0	0	0	0	507	515
4848	0	0	0	0	505	514
4849	0	0	0	0	508	515
4850	0	0	0	0	512	512
4851	0	0	0	0	511	510
4852	0	0	0	0	511	511
4853	0	0	0	0	507	511
4854	0	0	0	0	504	509
4855	0	0	0	0	508	509
4856	0	0	0	0	511	512
4857	0	0	0	0	511	512
4858	0	0	0	0	512	512
4859	0	0	0	0	512	511
4860	0	0	0	0	509	512
4861	0	0	0	0	509	514
4862	0	0	0	0	511	513
4863	0	0	0	0	509	512
4864	0	0	0	0	509	513
4865	0	0	0	0	504	512
4866	0	0	0	0	505	515
4867	0	0	0	0	508	513
4868	0	0	0	0	508	510
4869	0	0	0	0	509	512
4870	0	0	0	0	512	512
4871	0	0	0	0	511	512
4872	0	0	0	0	511	511
4873	0	0	0	0	509	511
4874	0	0	0	0	509	513
4875	0	0	0	0	511	513
4876	0	0	0	0	512	514
4877	0	0	0	0	512	513
4878	0	0	0	0	510	512
4879	0	0	0	0	507	511
4880	0	0	0	0	506	513
4881	0	0	0	0	503	514
4882	0	0	0	0	504	512
4883	0	0	0	0	507	510
4884	0	0	0	0	509	513
4885	0	0	0	0	512	512
4886	0	0	0	0	518	513
4887	0	0	0	0	515	513
4888	0	0	0	0	511	514
4889	0	0	0	0	505	512
4890	0	0	0	0	510	513
4891	0	0	0	0	511	513
4892	0	0	0	0	512	513
4893	0	0	0	0	511	512
4894	0	0	0	0	506	514
4895	0	0	0	0	509	512
4896	0	0	0	0	512	514
4897	0	0	0	0	510	513
4898	0	0	0	0	511	512
4899	0	0	0	0	510	511
4900	0	0	0	0	512	512
4901	0	0	0	0	515	510
4902	0	0	0	0	511	512
4903	0	0	0	0	512	511
4904	0	0	0	0	510	512
4905	0	0	0	0	504	513
4906	0	0	0	0	504	512
4907	0	0	0	0	507	513
4908	0	0	0	0	506	512
4909	0	0	0	0	505	512
4910	0	0	0	0	504	513
4911	0	0	0	0	504	513
4912	0	0	0	0	505	513
4913	0	0	0	0	509	512
4914	0	0	0	0	508	512
4915	0	0	0	0	511	513
4916	0	0	0	0	513	513
4917	0	0	0	0	513	512
4918	0	0	0	0	515	511
4919	0	0	0	0	515	512
4920	0	0	0	0	513	511
4921	0	0	0	0	510	511
4922	0	0	0	0	510	511
4923	0	0	0	0	507	512
4924	0	0	0	0	510	510
4925	0	0	0	0	511	511
4926	0	0	0	0	508	511
4927	0	0	0	0	510	513
4928	0	0	0	0	511	513
4929	0	0	0	0	509	512
4930	0	0	0	0	509	515
4931	0	0	0	0	507	512
4932	0	0	0	0	509	514
4933	0	0	0	0	507	512
4934	0	0	0	0	508	511
4935	0	0	0	0	509	511
4936	0	0	0	0	508	512
4937	0	0	0	0	508	511
4938	0	0	0	0	511	511
4939	0	0	0	0	509	511
4940	0	0	0	0	509	512
4941	0	0	0	0	508	512
4942	0	0	0	0	510	512
4943	0	0	0	0	508	512
4944	0	0	0	0	511	511
4945	0	0	0	0	512	513
4946	0	0	0	0	510	512
4947	0	0	0	0	508	512
4948	0	0	0	0	508	514
4949	0	0	0	0	511	512
4950	0	0	0	0	512	512
4951	0	0	0	0	511	511
4952	0	0	0	0	508	514
4953	0	0	0	0	508	513
4954	0	0	0	0	510	512
4955	0	0	0	0	511	512
4956	0	0	0	0	511	515
4957	0	0	0	0	512	512
4958	0	0	0	0	510	513
4959	0	0	0	0	511	513
4960	0	0	0	0	515	513
4961	0	0	0	0	514	512
4962	0	0	0	0	510	511
4963	0	0	0	0	510	512
4964	0	0	0	0	504	512
4965	0	0	0	0	504	511
4966	0	0	0	0	506	511
4967	0	0	0	0	508	511
4968	0	0	0	0	505	511
4969	0	0	0	0	510	513
4970	0	0	0	0	512	515
4971	0	0	0	0	511	512
4972	0	0	0	0	515	513
4973	0	0	0	0	515	512
4974	0	0	0	0	512	512
4975	0	0	0	0	508	512
4976	0	0	0	0	508	513
4977	0	0	0	0	510	510
4978	0	0	0	0	511	512
4979	0	0	0	0	510	511
4980	0	0	0	0	511	513
4981	0	0	0	0	508	513
4982	0	0	0	0	507	514
4983	0	0	0	0	504	511
4984	0	0	0	0	504	512
4985	0	0	0	0	507	514
4986	0	0	0	0	509	513
4987	0	0	0	0	512	512
4988	0	0	0	0	514	514
4989	0	0	0	0	511	513
4990	0	0	0	0	510	513
4991	0	0	0	0	505	511
4992	0	0	0	0	505	512
4993	0	0	0	0	508	513
4994	0	0	0	0	510	511
4995	0	0	0	0	507	514
4996	0	0	0	0	508	514
4997	0	0	0	0	507	513
4998	0	0	0	0	506	513
4999	0	0	0	0	508	513
5000	0	0	0	0	515	512
5001	0	0	0	0	515	511
5002	0	0	0	0	517	513
5003	0	0	0	0	511	514
5004	0	0	0	0	508	513
5005	0	0	0	0	511	512
5006	0	0	0	0	508	513
5007	0	0	0	0	507	513
5008	0	0	0	0	508	512
5009	0	0	0	0	511	511
5010	0	0	0	0	511	512
5011	0	0	0	0	510	511
5012	0	0	0	0	505	511
5013	0	0	0	0	507	512
5014	0	0	0	0	514	511
5015	0	0	0	0	512	513
5016	0	0	0	0	509	511
5017	0	0	0	0	506	512
5018	0	0	0	0	508	515
5019	0	0	0	0	507	513
5020	0	0	0	0	507	513
5021	0	0	0	0	509	513
5022	0	0	0	0	508	512
5023	0	0	0	0	508	512
5024	0	0	0	0	510	512
5025	0	0	0	0	511	511
5026	0	0	0	0	510	511
5027	0	0	0	0	511	512
5028	0	0	0	0	512	512
5029	0	0	0	0	511	514
5030	0	0	0	0	508	514
5031	0	0	0	0	508	513
5032	0	0	0	0	508	512
5033	0	0	0	0	507	511
5034	0	0	0	0	510	513
5035	0	0	0	0	509	512
5036	0	0	0	0	510	511
5037	0	0	0	0	512	513
5038	0	0	0	0	508	512
5039	0	0	0	0	508	512
5040	0	0	0	0	509	513
5041	0	0	0	0	510	512
5042	0	0	0	0	511	512
5043	0	0	0	0	514	513
5044	0	0	0	0	513	512
5045	0	0	0	0	513	511
5046	0	0	0	0	508	510
5047	0	0	0	0	508	510
5048	0	0	0	0	511	512
5049	0	0	0	0	509	512
5050	0	0	0	0	506	512
5051	0	0	0	0	508	512
5052	0	0	0	0	508	513
5053	0	0	0	0	509	513
5054	0	0	0	0	512	513
5055	0	0	0	0	511	513
5056	0	0	0	0	508	513
5057	0	0	0	0	510	511
5058	0	0	0	0	508	512
5059	0	0	0	0	508	512
5060	0	0	0	0	508	511
5061	0	0	0	0	508	514
5062	0	0	0	0	510	511
5063	0	0	0	0	512	511
5064	0	0	0	0	518	512
5065	0	0	0	0	513	511
5066	0	0	0	0	511	510
5067	0	0	0	0	508	511
5068	0	0	0	0	508	514
5069	0	0	0	0	508	514
5070	0	0	0	0	508	514
5071	0	0	0	0	508	511
5072	0	0	0	0	508	513
5073	0	0	0	0	510	512
5074	0	0	0	0	512	511
5075	0	0	0	0	512	512
5076	0	0	0	0	510	513
5077	0	0	0	0	510	512
5078	0	0	0	0	511	513
5079	0	0	0	0	509	513
5080	0	0	0	0	510	512
5081	0	0	0	0	507	513
5082	0	0	0	0	510	514
5083	0	0	0	0	512	513
5084	0	0	0	0	508	511
5085	0	0	0	0	508	511
5086	0	0	0	0	509	512
5087	0	0	0	0	509	512
5088	0	0	0	0	509	513
5089	0	0	0	0	510	514
5090	0	0	0	0	509	512
5091	0	0	0	0	510	513
5092	0	0	0	0	512	513
5093	0	0	0	0	511	513
5094	0	0	0	0	512	512
5095	0	0	0	0	509	512
5096	0	0	0	0	510	513
5097	0	0	0	0	509	513
5098	0	0	0	0	508	514
5099	0	0	0	0	510	513
5100	0	0	0	0	510	513
5101	0	0	0	0	509	512
5102	0	0	0	0	509	512
5103	0	0	0	0	511	513
5104	0	0	0	0	512	513
5105	0	0	0	0	512	512
5106	0	0	0	0	510	511
5107	0	0	0	0	507	512
5108	0	0	0	0	508	512
5109	0	0	0	0	512	515
5110	0	0	0	0	510	514
5111	0	0	0	0	508	512
5112	0	0	0	0	507	514
5113	0	0	0	0	506	512
5114	0	0	0	0	508	513
5115	0	0	0	0	511	510
5116	0	0	0	0	510	511
5117	0	0	0	0	508	513
5118	0	0	0	0	508	511
5119	0	0	0	0	508	512
5120	0	0	0	0	512	512
5121	0	0	0	0	512	511
5122	0	0	0	0	514	511
5123	0	0	0	0	512	512
5124	0	0	0	0	513	512
5125	0	0	0	0	512	513
5126	0	0	0	0	511	510
5127	0	0	0	0	511	512
5128	0	0	0	0	512	512
5129	0	0	0	0	510	514
5130	0	0	0	0	510	513
5131	0	0	0	0	509	512
5132	0	0	0	0	507	513
5133	0	0	0	0	511	512
5134	0	0	0	0	508	512
5135	0	0	0	0	508	514
5136	0	0	0	0	508	512
5137	0	0	0	0	507	509
5138	0	0	0	0	508	510
5139	0	0	0	0	508	511
5140	0	0	0	0	510	511
5141	0	0	0	0	510	513
5142	0	0	0	0	506	513
5143	0	0	0	0	508	513
5144	0	0	0	0	508	514
5145	0	0	0	0	502	513
5146	0	0	0	0	509	514
5147	0	0	0	0	507	513
5148	0	0	0	0	510	515
5149	0	0	0	0	511	513
5150	0	0	0	0	511	512
5151	0	0	0	0	511	510
5152	0	0	0	0	514	513
5153	0	0	0	0	515	511
5154	0	0	0	0	513	511
5155	0	0	0	0	514	510
5156	0	0	0	0	507	512
5157	0	0	0	0	505	511
5158	0	0	0	0	505	513
5159	0	0	0	0	508	515
5160	0	0	0	0	508	514
5161	0	0	0	0	507	514
5162	0	0	0	0	509	514
5163	0	0	0	0	513	512
5164	0	0	0	0	512	512
5165	0	0	0	0	512	512
5166	0	0	0	0	512	510
5167	0	0	0	0	508	511
5168	0	0	0	0	508	512
5169	0	0	0	0	508	513
5170	0	0	0	0	508	513
5171	0	0	0	0	506	512
5172	0	0	0	0	510	512
5173	0	0	0	0	509	511
5174	0	0	0	0	512	509
5175	0	0	0	0	515	511
5176	0	0	0	0	511	512
5177	0	0	0	0	510	513
5178	0	0	0	0	508	514
5179	0	0	0	0	507	514
5180	0	0	0	0	510	515
5181	0	0	0	0	507	513
5182	0	0	0	0	510	513
5183	0	0	0	0	513	512
5184	0	0	0	0	513	512
5185	0	0	0	0	513	512
5186	0	0	0	0	514	510
5187	0	0	0	0	511	513
5188	0	0	0	0	506	512
5189	0	0	0	0	507	512
5190	0	0	0	0	507	512
5191	0	0	0	0	508	515
5192	0	0	0	0	509	512
5193	0	0	0	0	510	512
5194	0	0	0	0	509	514
5195	0	0	0	0	507	513
5196	0	0	0	0	505	514
5197	0	0	0	0	509	515
5198	0	0	0	0	509	512
5199	0	0	0	0	511	514
5200	0	0	0	0	510	511
5201	0	0	0	0	510	512
5202	0	0	0	0	509	514
5203	0	0	0	0	510	512
5204	0	0	0	0	513	511
5205	0	0	0	0	511	512
5206	0	0	0	0	511	511
5207	0	0	0	0	511	512
5208	0	0	0	0	508	512
5209	0	0	0	0	509	512
5210	0	0	0	0	511	513
5211	0	0	0	0	508	512
5212	0	0	0	0	508	514
5213	0	0	0	0	508	514
5214	0	0	0	0	508	510
5215	0	0	0	0	509	512
5216	0	0	0	0	509	513
5217	0	0	0	0	509	511
5218	0	0	0	0	508	512
5219	0	0	0	0	512	513
5220	0	0	0	0	510	511
5221	0	0	0	0	510	512
5222	0	0	0	0	511	513
5223	0	0	0	0	512	515
5224	0	0	0	0	515	513
5225	0	0	0	0	509	512
5226	0	0	0	0	507	512
5227	0	0	0	0	507	512
5228	0	0	0	0	507	512
5229	0	0	0	0	509	512
5230	0	0	0	0	510	513
5231	0	0	0	0	508	513
5232	0	0	0	0	509	511
5233	0	0	0	0	511	511
5234	0	0	0	0	511	512
5235	0	0	0	0	509	512
5236	0	0	0	0	509	512
5237	0	0	0	0	507	512
5238	0	0	0	0	504	512
5239	0	0	0	0	505	510
5240	0	0	0	0	508	511
5241	0	0	0	0	511	512
5242	0	0	0	0	516	511
5243	0	0	0	0	512	512
5244	0	0	0	0	509	513
5245	0	0	0	0	506	512
5246	0	0	0	0	508	513
5247	0	0	0	0	511	512
5248	0	0	0	0	506	515
5249	0	0	0	0	508	513
5250	0	0	0	0	512	513
5251	0	0	0	0	516	514
5252	0	0	0	0	518	515
5253	0	0	0	0	519	513
5254	0	0	0	0	512	512
5255	0	0	0	0	508	512
5256	0	0	0	0	508	511
5257	0	0	0	0	508	512
5258	0	0	0	0	508	513
5259	0	0	0	0	504	514
5260	0	0	0	0	509	512
5261	0	0	0	0	513	514
5262	0	0	0	0	511	513
5263	0	0	0	0	507	510
5264	0	0	0	0	507	512
5265	0	0	0	0	508	513
5266	0	0	0	0	513	510
5267	0	0	0	0	514	511
5268	0	0	0	0	511	512
5269	0	0	0	0	512	512
5270	0	0	0	0	511	510
5271	0	0	0	0	509	512
5272	0	0	0	0	508	512
5273	0	0	0	0	508	513
5274	0	0	0	0	506	513
5275	0	0	0	0	505	512
5276	0	0	0	0	504	512
5277	0	0	0	0	504	514
5278	0	0	0	0	508	512
5279	0	0	0	0	508	511
5280	0	0	0	0	507	511
5281	0	0	0	0	512	513
5282	0	0	0	0	517	512
5283	0	0	0	0	512	512
5284	0	0	0	0	510	513
5285	0	0	0	0	510	510
5286	0	0	0	0	508	511
5287	0	0	0	0	510	511
5288	0	0	0	0	509	512
5289	0	0	0	0	512	512
5290	0	0	0	0	511	511
5291	0	0	0	0	511	511
5292	0	0	0	0	510	513
5293	0	0	0	0	509	513
5294	0	0	0	0	512	514
5295	0	0	0	0	510	515
5296	0	0	0	0	510	513
5297	0	0	0	0	508	511
5298	0	0	0	0	508	511
5299	0	0	0	0	509	511
5300	0	0	0	0	507	512
5301	0	0	0	0	508	511
5302	0	0	0	0	511	512
5303	0	0	0	0	511	512
5304	0	0	0	0	511	513
5305	0	0	0	0	512	512
5306	0	0	0	0	512	513
5307	0	0	0	0	508	512
5308	0	0	0	0	508	514
5309	0	0	0	0	509	514
5310	0	0	0	0	508	514
5311	0	0	0	0	507	512
5312	0	0	0	0	509	513
5313	0	0	0	0	507	513
5314	0	0	0	0	510	515
5315	0	0	0	0	508	512
5316	0	0	0	0	508	515
5317	0	0	0	0	507	512
5318	0	0	0	0	504	512
5319	0	0	0	0	505	512
5320	0	0	0	0	504	512
5321	0	0	0	0	502	512
5322	0	0	0	0	504	511
5323	0	0	0	0	506	511
5324	0	0	0	0	505	510
5325	0	0	0	0	504	511
5326	0	0	0	0	504	512
5327	0	0	0	0	507	512
5328	0	0	0	0	508	513
5329	0	0	0	0	507	515
5330	0	0	0	0	510	514
5331	0	0	0	0	510	511
5332	0	0	0	0	513	511
5333	0	0	0	0	518	512
5334	0	0	0	0	519	511
5335	0	0	0	0	518	511
5336	0	0	0	0	516	510
5337	0	0	0	0	515	511
5338	0	0	0	0	516	512
5339	0	0	0	0	518	513
5340	0	0	0	0	517	512
5341	0	0	0	0	519	514
5342	0	0	0	0	517	513
5343	0	0	0	0	517	513
5344	0	0	0	0	518	513
5345	0	0	0	0	517	513
5346	0	0	0	0	518	512
5347	0	0	0	0	517	512
5348	0	0	0	0	513	511
5349	0	0	0	0	511	513
5350	0	0	0	0	511	511
5351	0	0	0	0	509	510
5352	0	0	0	0	508	512
5353	0	0	0	0	510	512
5354	0	0	0	0	508	515
5355	0	0	0	0	511	513
5356	0	0	0	0	508	511
5357	0	0	0	0	510	512
5358	0	0	0	0	510	512
5359	0	0	0	0	508	512
5360	0	0	0	0	511	512
5361	0	0	0	0	508	511
5362	0	0	0	0	507	512
5363	0	0	0	0	506	513
5364	0	0	0	0	506	512
5365	0	0	0	0	505	513
5366	0	0	0	0	508	512
5367	0	0	0	0	507	513
5368	0	0	0	0	504	512
5369	0	0	0	0	502	511
5370	0	0	0	0	506	511
5371	0	0	0	0	503	514
5372	0	0	0	0	506	513
5373	0	0	0	0	505	512
5374	0	0	0	0	505	512
5375	0	0	0	0	504	515
5376	0	0	0	0	506	512
5377	0	0	0	0	507	512
5378	0	0	0	0	508	512
5379	0	0	0	0	510	513
5380	0	0	0	0	511	511
5381	0	0	0	0	509	511
5382	0	0	0	0	509	512
5383	0	0	0	0	507	513
5384	0	0	0	0	505	512
5385	0	0	0	0	504	511
5386	0	0	0	0	506	511
5387	0	0	0	0	511	513
5388	0	0	0	0	512	512
5389	0	0	0	0	517	513
5390	0	0	0	0	522	513
5391	0	0	0	0	523	512
5392	0	0	0	0	526	514
5393	0	0	0	0	521	513
5394	0	0	0	0	506	512
5395	0	0	0	0	503	512
5396	0	0	0	0	503	511
5397	0	0	0	0	508	511
5398	0	0	0	0	512	510
5399	0	0	0	0	508	512
5400	0	0	0	0	507	514
5401	0	0	0	0	507	513
5402	0	0	0	0	509	513
5403	0	0	0	0	513	512
5404	0	0	0	0	511	512
5405	0	0	0	0	508	513
5406	0	0	0	0	508	512
5407	0	0	0	0	508	512
5408	0	0	0	0	509	511
5409	0	0	0	0	511	513
5410	0	0	0	0	516	515
5411	0	0	0	0	511	512
5412	0	0	0	0	506	512
5413	0	0	0	0	503	512
5414	0	0	0	0	504	513
5415	0	0	0	0	504	512
5416	0	0	0	0	504	514
5417	0	0	0	0	505	513
5418	0	0	0	0	504	512
5419	0	0	0	0	506	512
5420	0	0	0	0	505	511
5421	0	0	0	0	512	511
5422	0	0	0	0	511	513
5423	0	0	0	0	510	512
5424	0	0	0	0	511	513
5425	0	0	0	0	508	512
5426	0	0	0	0	507	511
5427	0	0	0	0	512	511
5428	0	0	0	0	511	512
5429	0	0	0	0	512	511
5430	0	0	0	0	511	511
5431	0	0	0	0	512	515
5432	0	0	0	0	512	513
5433	0	0	0	0	510	515
5434	0	0	0	0	509	513
5435	0	0	0	0	512	514
5436	0	0	0	0	509	513
5437	0	0	0	0	509	513
5438	0	0	0	0	511	512
5439	0	0	0	0	511	512
5440	0	0	0	0	511	510
5441	0	0	0	0	509	511
5442	0	0	0	0	510	511
5443	0	0	0	0	510	512
5444	0	0	0	0	507	510
5445	0	0	0	0	511	512
5446	0	0	0	0	510	512
5447	0	0	0	0	510	513
5448	0	0	0	0	508	511
5449	0	0	0	0	508	511
5450	0	0	0	0	510	513
5451	0	0	0	0	510	513
5452	0	0	0	0	512	513
5453	0	0	0	0	511	512
5454	0	0	0	0	510	512
5455	0	0	0	0	508	513
5456	0	0	0	0	509	514
5457	0	0	0	0	510	515
5458	0	0	0	0	509	513
5459	0	0	0	0	512	513
5460	0	0	0	0	510	513
5461	0	0	0	0	512	511
5462	0	0	0	0	509	512
5463	0	0	0	0	508	512
5464	0	0	0	0	509	511
5465	0	0	0	0	511	511
5466	0	0	0	0	510	511
5467	0	0	0	0	509	512
5468	0	0	0	0	509	512
5469	0	0	0	0	507	511
5470	0	0	0	0	507	511
5471	0	0	0	0	508	511
5472	0	0	0	0	507	511
5473	0	0	0	0	508	513
5474	0	0	0	0	508	513
