# OpenSignals Text File Format. Version 1
# {"98:D3:11:FE:05:A2": {"position": 0, "device": "bitalino_rev", "device name": "98:D3:11:FE:05:A2", "device connection": "BTH98:D3:11:FE:05:A2", "sampling rate": 1000, "resolution": [4, 1, 1, 1, 1, 10, 10], "firmware version": 1282, "comments": "", "keywords": "", "mode": 0, "sync interval": 2, "date": "2026-6-26", "time": "15:50:29.870", "channels": [1, 2], "sensor": ["EMGBITREV", "EMGBITREV"], "label": ["A1", "A2"], "column": ["nSeq", "I1", "I2", "O1", "O2", "A1", "A2"], "special": [{}, {}], "digital IO": [0, 0, 1, 1]}}
# EndOfHeader
0	0	0	0	0	519	512	
1	0	0	0	0	514	505	
2	0	0	0	0	516	501	
3	0	0	0	0	519	500	
4	0	0	0	0	514	501	
5	0	0	0	0	511	492	
6	0	0	0	0	510	493	
7	0	0	0	0	506	492	
8	0	0	0	0	505	493	
9	0	0	0	0	504	493	
10	0	0	0	0	502	501	
11	0	0	0	0	501	509	
12	0	0	0	0	507	520	
13	0	0	0	0	512	528	
14	0	0	0	0	513	531	
15	0	0	0	0	517	524	
0	0	0	0	0	520	516	
1	0	0	0	0	519	516	
2	0	0	0	0	514	520	
3	0	0	0	0	510	514	
4	0	0	0	0	508	510	
5	0	0	0	0	508	510	
6	0	0	0	0	502	512	
7	0	0	0	0	496	518	
8	0	0	0	0	502	517	
9	0	0	0	0	512	517	
10	0	0	0	0	515	517	
11	0	0	0	0	521	515	
12	0	0	0	0	523	515	
13	0	0	0	0	515	510	
14	0	0	0	0	512	509	
15	0	0	0	0	512	502	
0	0	0	0	0	508	502	
1	0	0	0	0	503	500	
2	0	0	0	0	497	487	
3	0	0	0	0	497	475	
4	0	0	0	0	498	476	
5	0	0	0	0	499	488	
6	0	0	0	0	507	498	
7	0	0	0	0	512	513	
8	0	0	0	0	511	521	
9	0	0	0	0	515	529	
10	0	0	0	0	519	537	
11	0	0	0	0	525	542	
12	0	0	0	0	526	540	
13	0	0	0	0	515	535	
14	0	0	0	0	510	529	
15	0	0	0	0	507	522	
0	0	0	0	0	514	516	
1	0	0	0	0	522	511	
2	0	0	0	0	519	505	
3	0	0	0	0	514	505	
4	0	0	0	0	507	503	
5	0	0	0	0	504	500	
6	0	0	0	0	504	498	
7	0	0	0	0	504	499	
8	0	0	0	0	499	493	
9	0	0	0	0	504	489	
10	0	0	0	0	508	481	
11	0	0	0	0	504	487	
12	0	0	0	0	503	500	
13	0	0	0	0	510	506	
14	0	0	0	0	508	510	
15	0	0	0	0	514	519	
0	0	0	0	0	517	527	
1	0	0	0	0	515	535	
2	0	0	0	0	510	534	
3	0	0	0	0	504	526	
4	0	0	0	0	499	519	
5	0	0	0	0	495	514	
6	0	0	0	0	498	511	
7	0	0	0	0	510	510	
8	0	0	0	0	530	512	
9	0	0	0	0	538	510	
10	0	0	0	0	533	510	
11	0	0	0	0	521	508	
12	0	0	0	0	505	508	
13	0	0	0	0	496	492	
14	0	0	0	0	492	492	
15	0	0	0	0	491	488	
0	0	0	0	0	491	487	
1	0	0	0	0	500	496	
2	0	0	0	0	511	500	
3	0	0	0	0	519	506	
4	0	0	0	0	524	518	
5	0	0	0	0	525	532	
6	0	0	0	0	528	537	
7	0	0	0	0	533	540	
8	0	0	0	0	529	539	
9	0	0	0	0	524	533	
10	0	0	0	0	513	525	
11	0	0	0	0	512	523	
12	0	0	0	0	504	521	
13	0	0	0	0	498	514	
14	0	0	0	0	494	506	
15	0	0	0	0	493	503	
0	0	0	0	0	503	501	
1	0	0	0	0	507	498	
2	0	0	0	0	513	494	
3	0	0	0	0	513	493	
4	0	0	0	0	516	497	
5	0	0	0	0	514	502	
6	0	0	0	0	510	505	
7	0	0	0	0	511	507	
8	0	0	0	0	516	507	
9	0	0	0	0	520	512	
10	0	0	0	0	523	518	
11	0	0	0	0	522	515	
12	0	0	0	0	520	515	
13	0	0	0	0	519	511	
14	0	0	0	0	509	507	
15	0	0	0	0	500	505	
0	0	0	0	0	492	502	
1	0	0	0	0	485	504	
2	0	0	0	0	484	499	
3	0	0	0	0	481	499	
4	0	0	0	0	489	502	
5	0	0	0	0	503	512	
6	0	0	0	0	510	521	
7	0	0	0	0	518	524	
8	0	0	0	0	523	529	
9	0	0	0	0	527	531	
10	0	0	0	0	532	521	
11	0	0	0	0	533	521	
12	0	0	0	0	528	514	
13	0	0	0	0	526	506	
14	0	0	0	0	519	503	
15	0	0	0	0	514	501	
0	0	0	0	0	508	498	
1	0	0	0	0	499	500	
2	0	0	0	0	498	503	
3	0	0	0	0	499	503	
4	0	0	0	0	496	501	
5	0	0	0	0	501	495	
6	0	0	0	0	508	497	
7	0	0	0	0	516	500	
8	0	0	0	0	519	510	
9	0	0	0	0	515	519	
10	0	0	0	0	515	524	
11	0	0	0	0	513	519	
12	0	0	0	0	508	510	
13	0	0	0	0	508	506	
14	0	0	0	0	510	500	
15	0	0	0	0	514	505	
0	0	0	0	0	515	519	
1	0	0	0	0	518	531	
2	0	0	0	0	512	534	
3	0	0	0	0	507	533	
4	0	0	0	0	506	531	
5	0	0	0	0	512	536	
6	0	0	0	0	512	533	
7	0	0	0	0	507	525	
8	0	0	0	0	508	516	
9	0	0	0	0	507	511	
10	0	0	0	0	504	506	
11	0	0	0	0	502	497	
12	0	0	0	0	497	496	
13	0	0	0	0	493	496	
14	0	0	0	0	497	495	
15	0	0	0	0	506	494	
0	0	0	0	0	512	494	
1	0	0	0	0	515	490	
2	0	0	0	0	518	488	
3	0	0	0	0	527	492	
4	0	0	0	0	534	499	
5	0	0	0	0	529	505	
6	0	0	0	0	518	513	
7	0	0	0	0	508	518	
8	0	0	0	0	508	520	
9	0	0	0	0	506	518	
10	0	0	0	0	506	515	
11	0	0	0	0	502	521	
12	0	0	0	0	492	519	
13	0	0	0	0	495	519	
14	0	0	0	0	512	521	
15	0	0	0	0	527	524	
0	0	0	0	0	525	519	
1	0	0	0	0	514	516	
2	0	0	0	0	508	512	
3	0	0	0	0	507	508	
4	0	0	0	0	508	503	
5	0	0	0	0	502	503	
6	0	0	0	0	501	504	
7	0	0	0	0	505	503	
8	0	0	0	0	515	504	
9	0	0	0	0	527	505	
10	0	0	0	0	529	503	
11	0	0	0	0	531	504	
12	0	0	0	0	531	508	
13	0	0	0	0	526	513	
14	0	0	0	0	514	507	
15	0	0	0	0	502	506	
0	0	0	0	0	494	512	
1	0	0	0	0	487	517	
2	0	0	0	0	484	521	
3	0	0	0	0	492	520	
4	0	0	0	0	498	513	
5	0	0	0	0	512	512	
6	0	0	0	0	514	511	
7	0	0	0	0	516	505	
8	0	0	0	0	519	494	
9	0	0	0	0	521	490	
10	0	0	0	0	517	492	
11	0	0	0	0	511	502	
12	0	0	0	0	507	511	
13	0	0	0	0	505	519	
14	0	0	0	0	508	528	
15	0	0	0	0	506	530	
0	0	0	0	0	516	530	
1	0	0	0	0	515	522	
2	0	0	0	0	514	514	
3	0	0	0	0	513	511	
4	0	0	0	0	511	509	
5	0	0	0	0	513	510	
6	0	0	0	0	507	510	
7	0	0	0	0	504	509	
8	0	0	0	0	507	509	
9	0	0	0	0	505	506	
10	0	0	0	0	509	504	
11	0	0	0	0	505	501	
12	0	0	0	0	511	499	
13	0	0	0	0	512	503	
14	0	0	0	0	521	501	
15	0	0	0	0	526	493	
0	0	0	0	0	524	493	
1	0	0	0	0	512	506	
2	0	0	0	0	503	523	
3	0	0	0	0	500	529	
4	0	0	0	0	496	529	
5	0	0	0	0	496	527	
6	0	0	0	0	503	522	
7	0	0	0	0	504	518	
8	0	0	0	0	505	506	
9	0	0	0	0	516	509	
10	0	0	0	0	521	510	
11	0	0	0	0	524	509	
12	0	0	0	0	526	513	
13	0	0	0	0	521	519	
14	0	0	0	0	515	524	
15	0	0	0	0	508	519	
0	0	0	0	0	497	516	
1	0	0	0	0	495	512	
2	0	0	0	0	503	502	
3	0	0	0	0	508	497	
4	0	0	0	0	510	496	
5	0	0	0	0	511	504	
6	0	0	0	0	511	509	
7	0	0	0	0	519	511	
8	0	0	0	0	530	514	
9	0	0	0	0	525	514	
10	0	0	0	0	515	512	
11	0	0	0	0	509	510	
12	0	0	0	0	507	509	
13	0	0	0	0	506	508	
14	0	0	0	0	504	502	
15	0	0	0	0	500	495	
0	0	0	0	0	500	496	
1	0	0	0	0	506	493	
2	0	0	0	0	514	489	
3	0	0	0	0	514	496	
4	0	0	0	0	514	504	
5	0	0	0	0	515	517	
6	0	0	0	0	507	526	
7	0	0	0	0	512	530	
8	0	0	0	0	513	538	
9	0	0	0	0	515	537	
10	0	0	0	0	520	536	
11	0	0	0	0	521	527	
12	0	0	0	0	518	519	
13	0	0	0	0	516	511	
14	0	0	0	0	514	500	
15	0	0	0	0	511	495	
0	0	0	0	0	506	494	
1	0	0	0	0	498	493	
2	0	0	0	0	495	501	
3	0	0	0	0	493	504	
4	0	0	0	0	492	510	
5	0	0	0	0	496	513	
6	0	0	0	0	498	511	
7	0	0	0	0	507	509	
8	0	0	0	0	524	515	
9	0	0	0	0	528	519	
10	0	0	0	0	527	518	
11	0	0	0	0	523	518	
12	0	0	0	0	520	515	
13	0	0	0	0	512	515	
14	0	0	0	0	512	514	
15	0	0	0	0	512	511	
0	0	0	0	0	510	509	
1	0	0	0	0	517	509	
2	0	0	0	0	514	507	
3	0	0	0	0	512	507	
4	0	0	0	0	505	506	
5	0	0	0	0	499	501	
6	0	0	0	0	499	499	
7	0	0	0	0	502	502	
8	0	0	0	0	501	504	
9	0	0	0	0	503	511	
10	0	0	0	0	505	511	
11	0	0	0	0	510	510	
12	0	0	0	0	512	510	
13	0	0	0	0	513	511	
14	0	0	0	0	508	512	
15	0	0	0	0	514	508	
0	0	0	0	0	519	501	
1	0	0	0	0	520	497	
2	0	0	0	0	521	496	
3	0	0	0	0	516	498	
4	0	0	0	0	510	507	
5	0	0	0	0	511	516	
6	0	0	0	0	513	520	
7	0	0	0	0	518	518	
8	0	0	0	0	519	515	
9	0	0	0	0	515	510	
10	0	0	0	0	512	502	
11	0	0	0	0	504	505	
12	0	0	0	0	497	508	
13	0	0	0	0	494	508	
14	0	0	0	0	497	503	
15	0	0	0	0	495	499	
0	0	0	0	0	499	502	
1	0	0	0	0	505	504	
2	0	0	0	0	508	511	
3	0	0	0	0	515	519	
4	0	0	0	0	518	524	
5	0	0	0	0	513	530	
6	0	0	0	0	504	539	
7	0	0	0	0	507	536	
8	0	0	0	0	511	529	
9	0	0	0	0	512	528	
10	0	0	0	0	519	523	
11	0	0	0	0	537	519	
12	0	0	0	0	542	515	
13	0	0	0	0	536	513	
14	0	0	0	0	524	504	
15	0	0	0	0	519	494	
0	0	0	0	0	507	494	
1	0	0	0	0	494	498	
2	0	0	0	0	486	500	
3	0	0	0	0	477	506	
4	0	0	0	0	482	507	
5	0	0	0	0	489	508	
6	0	0	0	0	493	503	
7	0	0	0	0	509	501	
8	0	0	0	0	521	503	
9	0	0	0	0	526	499	
10	0	0	0	0	524	491	
11	0	0	0	0	526	497	
12	0	0	0	0	521	506	
13	0	0	0	0	516	518	
14	0	0	0	0	504	523	
15	0	0	0	0	500	524	
0	0	0	0	0	505	520	
1	0	0	0	0	504	518	
2	0	0	0	0	501	522	
3	0	0	0	0	503	524	
4	0	0	0	0	510	522	
5	0	0	0	0	512	513	
6	0	0	0	0	519	516	
7	0	0	0	0	515	516	
8	0	0	0	0	519	517	
9	0	0	0	0	519	516	
10	0	0	0	0	523	516	
11	0	0	0	0	522	511	
12	0	0	0	0	522	508	
13	0	0	0	0	520	503	
14	0	0	0	0	518	504	
15	0	0	0	0	511	502	
0	0	0	0	0	509	503	
1	0	0	0	0	499	496	
2	0	0	0	0	498	494	
3	0	0	0	0	503	496	
4	0	0	0	0	507	498	
5	0	0	0	0	514	502	
6	0	0	0	0	514	503	
7	0	0	0	0	513	496	
8	0	0	0	0	513	495	
9	0	0	0	0	511	497	
10	0	0	0	0	512	491	
11	0	0	0	0	512	493	
12	0	0	0	0	511	508	
13	0	0	0	0	507	526	
14	0	0	0	0	507	540	
15	0	0	0	0	516	554	
0	0	0	0	0	514	556	
1	0	0	0	0	509	556	
2	0	0	0	0	508	551	
3	0	0	0	0	511	547	
4	0	0	0	0	509	530	
5	0	0	0	0	504	509	
6	0	0	0	0	512	491	
7	0	0	0	0	530	488	
8	0	0	0	0	531	483	
9	0	0	0	0	520	483	
10	0	0	0	0	512	488	
11	0	0	0	0	497	494	
12	0	0	0	0	487	505	
13	0	0	0	0	484	512	
14	0	0	0	0	487	516	
15	0	0	0	0	493	517	
0	0	0	0	0	512	510	
1	0	0	0	0	528	503	
2	0	0	0	0	539	498	
3	0	0	0	0	541	504	
4	0	0	0	0	527	505	
5	0	0	0	0	510	508	
6	0	0	0	0	496	511	
7	0	0	0	0	490	515	
8	0	0	0	0	483	517	
9	0	0	0	0	482	512	
10	0	0	0	0	489	512	
11	0	0	0	0	503	514	
12	0	0	0	0	515	513	
13	0	0	0	0	516	519	
14	0	0	0	0	515	518	
15	0	0	0	0	516	514	
0	0	0	0	0	516	512	
1	0	0	0	0	514	517	
2	0	0	0	0	521	512	
3	0	0	0	0	521	507	
4	0	0	0	0	517	506	
5	0	0	0	0	519	504	
6	0	0	0	0	519	506	
7	0	0	0	0	519	504	
8	0	0	0	0	513	503	
9	0	0	0	0	512	505	
10	0	0	0	0	511	508	
11	0	0	0	0	510	509	
12	0	0	0	0	511	511	
13	0	0	0	0	511	510	
14	0	0	0	0	515	513	
15	0	0	0	0	517	513	
0	0	0	0	0	514	514	
1	0	0	0	0	516	513	
2	0	0	0	0	510	511	
3	0	0	0	0	510	507	
4	0	0	0	0	511	502	
5	0	0	0	0	512	505	
6	0	0	0	0	510	504	
7	0	0	0	0	504	508	
8	0	0	0	0	505	510	
9	0	0	0	0	506	515	
10	0	0	0	0	498	513	
11	0	0	0	0	497	516	
12	0	0	0	0	499	521	
13	0	0	0	0	503	518	
14	0	0	0	0	506	511	
15	0	0	0	0	505	508	
0	0	0	0	0	511	501	
1	0	0	0	0	516	501	
2	0	0	0	0	521	501	
3	0	0	0	0	523	503	
4	0	0	0	0	520	504	
5	0	0	0	0	519	512	
6	0	0	0	0	515	515	
7	0	0	0	0	512	519	
8	0	0	0	0	504	523	
9	0	0	0	0	503	523	
10	0	0	0	0	513	523	
11	0	0	0	0	518	523	
12	0	0	0	0	520	512	
13	0	0	0	0	519	505	
14	0	0	0	0	516	507	
15	0	0	0	0	516	511	
0	0	0	0	0	515	514	
1	0	0	0	0	508	513	
2	0	0	0	0	506	512	
3	0	0	0	0	515	511	
4	0	0	0	0	518	510	
5	0	0	0	0	508	512	
6	0	0	0	0	498	511	
7	0	0	0	0	496	504	
8	0	0	0	0	494	494	
9	0	0	0	0	491	491	
10	0	0	0	0	489	499	
11	0	0	0	0	492	500	
12	0	0	0	0	498	497	
13	0	0	0	0	504	491	
14	0	0	0	0	515	499	
15	0	0	0	0	522	502	
0	0	0	0	0	528	517	
1	0	0	0	0	521	530	
2	0	0	0	0	517	535	
3	0	0	0	0	519	528	
4	0	0	0	0	515	524	
5	0	0	0	0	508	529	
6	0	0	0	0	503	533	
7	0	0	0	0	501	521	
8	0	0	0	0	504	518	
9	0	0	0	0	510	519	
10	0	0	0	0	513	520	
11	0	0	0	0	513	516	
12	0	0	0	0	517	514	
13	0	0	0	0	525	511	
14	0	0	0	0	519	506	
15	0	0	0	0	519	499	
0	0	0	0	0	522	499	
1	0	0	0	0	528	500	
2	0	0	0	0	524	499	
3	0	0	0	0	518	503	
4	0	0	0	0	512	505	
5	0	0	0	0	509	507	
6	0	0	0	0	498	509	
7	0	0	0	0	490	506	
8	0	0	0	0	496	504	
9	0	0	0	0	505	500	
10	0	0	0	0	510	499	
11	0	0	0	0	509	501	
12	0	0	0	0	505	503	
13	0	0	0	0	506	505	
14	0	0	0	0	503	508	
15	0	0	0	0	504	510	
0	0	0	0	0	506	510	
1	0	0	0	0	506	512	
2	0	0	0	0	513	516	
3	0	0	0	0	520	518	
4	0	0	0	0	529	507	
5	0	0	0	0	529	503	
6	0	0	0	0	526	510	
7	0	0	0	0	511	514	
8	0	0	0	0	501	520	
9	0	0	0	0	500	527	
10	0	0	0	0	499	523	
11	0	0	0	0	503	521	
12	0	0	0	0	504	519	
13	0	0	0	0	505	515	
14	0	0	0	0	508	510	
15	0	0	0	0	512	509	
0	0	0	0	0	519	508	
1	0	0	0	0	529	508	
2	0	0	0	0	534	507	
3	0	0	0	0	524	512	
4	0	0	0	0	512	514	
5	0	0	0	0	510	513	
6	0	0	0	0	509	509	
7	0	0	0	0	502	504	
8	0	0	0	0	498	502	
9	0	0	0	0	493	500	
10	0	0	0	0	488	498	
11	0	0	0	0	503	499	
12	0	0	0	0	513	500	
13	0	0	0	0	518	502	
14	0	0	0	0	519	504	
15	0	0	0	0	517	506	
0	0	0	0	0	514	508	
1	0	0	0	0	508	510	
2	0	0	0	0	503	514	
3	0	0	0	0	499	511	
4	0	0	0	0	498	511	
5	0	0	0	0	501	513	
6	0	0	0	0	497	518	
7	0	0	0	0	500	524	
8	0	0	0	0	514	528	
9	0	0	0	0	530	525	
10	0	0	0	0	532	523	
11	0	0	0	0	529	520	
12	0	0	0	0	520	522	
13	0	0	0	0	519	519	
14	0	0	0	0	511	512	
15	0	0	0	0	505	505	
0	0	0	0	0	496	503	
1	0	0	0	0	492	504	
2	0	0	0	0	493	499	
3	0	0	0	0	497	496	
4	0	0	0	0	507	488	
5	0	0	0	0	514	489	
6	0	0	0	0	518	496	
7	0	0	0	0	523	506	
8	0	0	0	0	526	515	
9	0	0	0	0	523	520	
10	0	0	0	0	518	527	
11	0	0	0	0	510	528	
12	0	0	0	0	504	524	
13	0	0	0	0	507	505	
14	0	0	0	0	506	488	
15	0	0	0	0	508	486	
0	0	0	0	0	515	493	
1	0	0	0	0	514	498	
2	0	0	0	0	513	507	
3	0	0	0	0	513	515	
4	0	0	0	0	512	526	
5	0	0	0	0	514	535	
6	0	0	0	0	518	542	
7	0	0	0	0	515	542	
8	0	0	0	0	512	532	
9	0	0	0	0	511	522	
10	0	0	0	0	510	515	
11	0	0	0	0	510	505	
12	0	0	0	0	508	500	
13	0	0	0	0	504	499	
14	0	0	0	0	503	504	
15	0	0	0	0	507	507	
0	0	0	0	0	504	505	
1	0	0	0	0	509	505	
2	0	0	0	0	509	503	
3	0	0	0	0	511	497	
4	0	0	0	0	511	491	
5	0	0	0	0	512	488	
6	0	0	0	0	510	494	
7	0	0	0	0	511	505	
8	0	0	0	0	511	515	
9	0	0	0	0	511	523	
10	0	0	0	0	510	525	
11	0	0	0	0	510	530	
12	0	0	0	0	510	535	
13	0	0	0	0	513	533	
14	0	0	0	0	514	525	
15	0	0	0	0	512	515	
0	0	0	0	0	514	509	
1	0	0	0	0	508	508	
2	0	0	0	0	502	504	
3	0	0	0	0	503	502	
4	0	0	0	0	504	505	
5	0	0	0	0	509	503	
6	0	0	0	0	512	494	
7	0	0	0	0	518	493	
8	0	0	0	0	521	490	
9	0	0	0	0	519	487	
10	0	0	0	0	515	496	
11	0	0	0	0	515	507	
12	0	0	0	0	513	512	
13	0	0	0	0	516	513	
14	0	0	0	0	513	519	
15	0	0	0	0	511	524	
0	0	0	0	0	504	532	
1	0	0	0	0	500	534	
2	0	0	0	0	502	527	
3	0	0	0	0	515	521	
4	0	0	0	0	519	516	
5	0	0	0	0	514	511	
6	0	0	0	0	510	507	
7	0	0	0	0	508	504	
8	0	0	0	0	507	499	
9	0	0	0	0	498	498	
10	0	0	0	0	492	497	
11	0	0	0	0	486	495	
12	0	0	0	0	489	494	
13	0	0	0	0	505	500	
14	0	0	0	0	515	508	
15	0	0	0	0	519	517	
0	0	0	0	0	530	522	
1	0	0	0	0	533	524	
2	0	0	0	0	529	525	
3	0	0	0	0	519	524	
4	0	0	0	0	513	522	
5	0	0	0	0	511	519	
6	0	0	0	0	513	513	
7	0	0	0	0	516	508	
8	0	0	0	0	510	504	
9	0	0	0	0	513	505	
10	0	0	0	0	511	502	
11	0	0	0	0	513	504	
12	0	0	0	0	510	503	
13	0	0	0	0	507	501	
14	0	0	0	0	499	504	
15	0	0	0	0	496	498	
0	0	0	0	0	500	498	
1	0	0	0	0	508	497	
2	0	0	0	0	515	504	
3	0	0	0	0	512	502	
4	0	0	0	0	505	503	
5	0	0	0	0	503	515	
6	0	0	0	0	505	524	
7	0	0	0	0	508	528	
8	0	0	0	0	515	526	
9	0	0	0	0	517	527	
10	0	0	0	0	521	530	
11	0	0	0	0	520	527	
12	0	0	0	0	519	524	
13	0	0	0	0	513	519	
14	0	0	0	0	511	515	
15	0	0	0	0	504	513	
0	0	0	0	0	504	507	
1	0	0	0	0	511	504	
2	0	0	0	0	519	500	
3	0	0	0	0	519	497	
4	0	0	0	0	517	497	
5	0	0	0	0	514	500	
6	0	0	0	0	511	504	
7	0	0	0	0	511	508	
8	0	0	0	0	512	512	
9	0	0	0	0	506	512	
10	0	0	0	0	504	509	
11	0	0	0	0	507	510	
12	0	0	0	0	510	507	
13	0	0	0	0	509	506	
14	0	0	0	0	512	511	
15	0	0	0	0	511	509	
0	0	0	0	0	506	509	
1	0	0	0	0	505	511	
2	0	0	0	0	505	512	
3	0	0	0	0	504	504	
4	0	0	0	0	504	500	
5	0	0	0	0	513	501	
6	0	0	0	0	521	509	
7	0	0	0	0	518	508	
8	0	0	0	0	513	513	
9	0	0	0	0	509	515	
10	0	0	0	0	507	518	
11	0	0	0	0	509	519	
12	0	0	0	0	512	525	
13	0	0	0	0	504	523	
14	0	0	0	0	496	519	
15	0	0	0	0	505	514	
0	0	0	0	0	507	512	
1	0	0	0	0	509	509	
2	0	0	0	0	509	499	
3	0	0	0	0	513	499	
4	0	0	0	0	516	501	
5	0	0	0	0	513	507	
6	0	0	0	0	511	506	
7	0	0	0	0	512	509	
8	0	0	0	0	509	510	
9	0	0	0	0	509	515	
10	0	0	0	0	512	517	
11	0	0	0	0	515	515	
12	0	0	0	0	522	512	
13	0	0	0	0	524	511	
14	0	0	0	0	516	507	
15	0	0	0	0	512	513	
0	0	0	0	0	510	511	
1	0	0	0	0	507	507	
2	0	0	0	0	509	506	
3	0	0	0	0	512	508	
4	0	0	0	0	511	510	
5	0	0	0	0	503	507	
6	0	0	0	0	508	505	
7	0	0	0	0	510	504	
8	0	0	0	0	509	502	
9	0	0	0	0	512	499	
10	0	0	0	0	512	504	
11	0	0	0	0	512	512	
12	0	0	0	0	511	513	
13	0	0	0	0	516	519	
14	0	0	0	0	515	520	
15	0	0	0	0	512	525	
0	0	0	0	0	510	525	
1	0	0	0	0	511	524	
2	0	0	0	0	517	518	
3	0	0	0	0	513	512	
4	0	0	0	0	516	508	
5	0	0	0	0	513	505	
6	0	0	0	0	509	502	
7	0	0	0	0	499	501	
8	0	0	0	0	483	488	
9	0	0	0	0	479	490	
10	0	0	0	0	483	493	
11	0	0	0	0	498	505	
12	0	0	0	0	506	520	
13	0	0	0	0	513	532	
14	0	0	0	0	518	537	
15	0	0	0	0	521	535	
0	0	0	0	0	523	539	
1	0	0	0	0	524	530	
2	0	0	0	0	523	523	
3	0	0	0	0	521	511	
4	0	0	0	0	520	499	
5	0	0	0	0	518	489	
6	0	0	0	0	518	491	
7	0	0	0	0	518	495	
8	0	0	0	0	514	497	
9	0	0	0	0	514	503	
10	0	0	0	0	511	502	
11	0	0	0	0	511	502	
12	0	0	0	0	508	501	
13	0	0	0	0	506	508	
14	0	0	0	0	501	511	
15	0	0	0	0	501	512	
0	0	0	0	0	504	514	
1	0	0	0	0	510	520	
2	0	0	0	0	511	525	
3	0	0	0	0	515	529	
4	0	0	0	0	513	528	
5	0	0	0	0	510	524	
6	0	0	0	0	507	518	
7	0	0	0	0	513	509	
8	0	0	0	0	518	499	
9	0	0	0	0	512	494	
10	0	0	0	0	509	491	
11	0	0	0	0	504	498	
12	0	0	0	0	506	499	
13	0	0	0	0	512	504	
14	0	0	0	0	521	505	
15	0	0	0	0	517	509	
0	0	0	0	0	512	511	
1	0	0	0	0	504	512	
2	0	0	0	0	504	515	
3	0	0	0	0	500	515	
4	0	0	0	0	502	515	
5	0	0	0	0	503	517	
6	0	0	0	0	507	523	
7	0	0	0	0	512	523	
8	0	0	0	0	516	524	
9	0	0	0	0	516	516	
10	0	0	0	0	515	508	
11	0	0	0	0	510	503	
12	0	0	0	0	509	507	
13	0	0	0	0	504	507	
14	0	0	0	0	510	504	
15	0	0	0	0	515	504	
0	0	0	0	0	513	505	
1	0	0	0	0	514	509	
2	0	0	0	0	521	510	
3	0	0	0	0	522	511	
4	0	0	0	0	515	508	
5	0	0	0	0	514	508	
6	0	0	0	0	507	511	
7	0	0	0	0	505	513	
8	0	0	0	0	504	511	
9	0	0	0	0	502	509	
10	0	0	0	0	496	504	
11	0	0	0	0	501	503	
12	0	0	0	0	504	502	
13	0	0	0	0	510	504	
14	0	0	0	0	511	504	
15	0	0	0	0	518	505	
0	0	0	0	0	521	507	
1	0	0	0	0	524	510	
2	0	0	0	0	517	514	
3	0	0	0	0	518	519	
4	0	0	0	0	518	522	
5	0	0	0	0	515	522	
6	0	0	0	0	517	522	
7	0	0	0	0	513	520	
8	0	0	0	0	507	510	
9	0	0	0	0	510	505	
10	0	0	0	0	508	512	
11	0	0	0	0	505	518	
12	0	0	0	0	504	522	
13	0	0	0	0	499	520	
14	0	0	0	0	498	517	
15	0	0	0	0	506	518	
0	0	0	0	0	512	513	
1	0	0	0	0	516	512	
2	0	0	0	0	516	506	
3	0	0	0	0	520	503	
4	0	0	0	0	522	499	
5	0	0	0	0	516	496	
6	0	0	0	0	511	496	
7	0	0	0	0	503	492	
8	0	0	0	0	499	482	
9	0	0	0	0	499	489	
10	0	0	0	0	499	494	
11	0	0	0	0	502	508	
12	0	0	0	0	501	519	
13	0	0	0	0	508	527	
14	0	0	0	0	515	531	
15	0	0	0	0	519	535	
0	0	0	0	0	520	533	
1	0	0	0	0	520	526	
2	0	0	0	0	515	519	
3	0	0	0	0	508	514	
4	0	0	0	0	506	509	
5	0	0	0	0	511	504	
6	0	0	0	0	515	500	
7	0	0	0	0	527	501	
8	0	0	0	0	527	500	
9	0	0	0	0	519	501	
10	0	0	0	0	516	499	
11	0	0	0	0	508	500	
12	0	0	0	0	500	502	
13	0	0	0	0	500	504	
14	0	0	0	0	501	509	
15	0	0	0	0	494	511	
0	0	0	0	0	497	516	
1	0	0	0	0	508	520	
2	0	0	0	0	514	525	
3	0	0	0	0	519	527	
4	0	0	0	0	529	528	
5	0	0	0	0	534	522	
6	0	0	0	0	529	519	
7	0	0	0	0	528	514	
8	0	0	0	0	521	508	
9	0	0	0	0	511	505	
10	0	0	0	0	505	503	
11	0	0	0	0	493	503	
12	0	0	0	0	481	502	
13	0	0	0	0	486	498	
14	0	0	0	0	493	500	
15	0	0	0	0	493	506	
0	0	0	0	0	493	510	
1	0	0	0	0	499	510	
2	0	0	0	0	507	505	
3	0	0	0	0	512	500	
4	0	0	0	0	514	499	
5	0	0	0	0	513	501	
6	0	0	0	0	519	499	
7	0	0	0	0	524	496	
8	0	0	0	0	523	498	
9	0	0	0	0	519	504	
10	0	0	0	0	515	518	
11	0	0	0	0	517	536	
12	0	0	0	0	514	544	
13	0	0	0	0	514	543	
14	0	0	0	0	514	539	
15	0	0	0	0	511	538	
0	0	0	0	0	511	531	
1	0	0	0	0	515	521	
2	0	0	0	0	522	512	
3	0	0	0	0	517	505	
4	0	0	0	0	515	497	
5	0	0	0	0	516	497	
6	0	0	0	0	509	497	
7	0	0	0	0	508	498	
8	0	0	0	0	503	499	
9	0	0	0	0	496	502	
10	0	0	0	0	489	505	
11	0	0	0	0	494	504	
12	0	0	0	0	503	507	
13	0	0	0	0	510	507	
14	0	0	0	0	518	508	
15	0	0	0	0	521	508	
0	0	0	0	0	525	508	
1	0	0	0	0	520	507	
2	0	0	0	0	516	509	
3	0	0	0	0	516	508	
4	0	0	0	0	511	504	
5	0	0	0	0	509	503	
6	0	0	0	0	512	506	
7	0	0	0	0	512	498	
8	0	0	0	0	512	483	
9	0	0	0	0	511	483	
10	0	0	0	0	511	496	
11	0	0	0	0	500	512	
12	0	0	0	0	495	522	
13	0	0	0	0	497	530	
14	0	0	0	0	506	537	
15	0	0	0	0	505	538	
0	0	0	0	0	499	540	
1	0	0	0	0	498	538	
2	0	0	0	0	504	531	
3	0	0	0	0	513	515	
4	0	0	0	0	520	504	
5	0	0	0	0	527	500	
6	0	0	0	0	524	499	
7	0	0	0	0	518	500	
8	0	0	0	0	519	500	
9	0	0	0	0	520	499	
10	0	0	0	0	517	500	
11	0	0	0	0	509	502	
12	0	0	0	0	505	509	
13	0	0	0	0	502	514	
14	0	0	0	0	503	511	
15	0	0	0	0	508	508	
0	0	0	0	0	509	509	
1	0	0	0	0	511	512	
2	0	0	0	0	512	516	
3	0	0	0	0	515	515	
4	0	0	0	0	512	509	
5	0	0	0	0	510	507	
6	0	0	0	0	505	502	
7	0	0	0	0	512	504	
8	0	0	0	0	512	509	
9	0	0	0	0	512	515	
10	0	0	0	0	512	510	
11	0	0	0	0	517	513	
12	0	0	0	0	517	513	
13	0	0	0	0	518	514	
14	0	0	0	0	518	515	
15	0	0	0	0	522	515	
0	0	0	0	0	524	510	
1	0	0	0	0	518	511	
2	0	0	0	0	511	511	
3	0	0	0	0	504	514	
4	0	0	0	0	500	511	
5	0	0	0	0	501	502	
6	0	0	0	0	503	503	
7	0	0	0	0	497	505	
8	0	0	0	0	504	509	
9	0	0	0	0	507	512	
10	0	0	0	0	503	515	
11	0	0	0	0	505	515	
12	0	0	0	0	502	517	
13	0	0	0	0	503	520	
14	0	0	0	0	503	517	
15	0	0	0	0	513	515	
0	0	0	0	0	515	511	
1	0	0	0	0	513	508	
2	0	0	0	0	514	504	
3	0	0	0	0	513	503	
4	0	0	0	0	513	501	
5	0	0	0	0	512	506	
6	0	0	0	0	511	506	
7	0	0	0	0	510	504	
8	0	0	0	0	509	507	
9	0	0	0	0	511	511	
10	0	0	0	0	506	510	
11	0	0	0	0	509	508	
12	0	0	0	0	509	511	
13	0	0	0	0	513	506	
14	0	0	0	0	521	507	
15	0	0	0	0	526	507	
0	0	0	0	0	528	510	
1	0	0	0	0	524	510	
2	0	0	0	0	518	507	
3	0	0	0	0	513	504	
4	0	0	0	0	510	512	
5	0	0	0	0	503	519	
6	0	0	0	0	497	523	
7	0	0	0	0	494	523	
8	0	0	0	0	503	520	
9	0	0	0	0	511	520	
10	0	0	0	0	523	524	
11	0	0	0	0	522	527	
12	0	0	0	0	515	530	
13	0	0	0	0	514	524	
14	0	0	0	0	518	508	
15	0	0	0	0	520	500	
0	0	0	0	0	515	502	
1	0	0	0	0	502	494	
2	0	0	0	0	493	492	
3	0	0	0	0	495	495	
4	0	0	0	0	500	502	
5	0	0	0	0	499	504	
6	0	0	0	0	493	512	
7	0	0	0	0	497	522	
8	0	0	0	0	504	520	
9	0	0	0	0	509	512	
10	0	0	0	0	515	511	
11	0	0	0	0	513	512	
12	0	0	0	0	516	508	
13	0	0	0	0	516	505	
14	0	0	0	0	518	504	
15	0	0	0	0	518	500	
0	0	0	0	0	515	499	
1	0	0	0	0	515	502	
2	0	0	0	0	514	507	
3	0	0	0	0	515	495	
4	0	0	0	0	522	478	
5	0	0	0	0	523	481	
6	0	0	0	0	519	495	
7	0	0	0	0	513	515	
8	0	0	0	0	512	531	
9	0	0	0	0	516	540	
10	0	0	0	0	515	541	
11	0	0	0	0	507	539	
12	0	0	0	0	498	538	
13	0	0	0	0	501	527	
14	0	0	0	0	502	520	
15	0	0	0	0	497	507	
0	0	0	0	0	492	495	
1	0	0	0	0	494	489	
2	0	0	0	0	496	494	
3	0	0	0	0	497	500	
4	0	0	0	0	507	507	
5	0	0	0	0	515	508	
6	0	0	0	0	522	512	
7	0	0	0	0	524	518	
8	0	0	0	0	524	516	
9	0	0	0	0	520	517	
10	0	0	0	0	511	516	
11	0	0	0	0	511	514	
12	0	0	0	0	514	511	
13	0	0	0	0	513	514	
14	0	0	0	0	511	516	
15	0	0	0	0	508	511	
0	0	0	0	0	505	508	
1	0	0	0	0	507	510	
2	0	0	0	0	504	508	
3	0	0	0	0	510	505	
4	0	0	0	0	512	503	
5	0	0	0	0	512	504	
6	0	0	0	0	513	504	
7	0	0	0	0	515	505	
8	0	0	0	0	515	496	
9	0	0	0	0	519	497	
10	0	0	0	0	518	501	
11	0	0	0	0	519	501	
12	0	0	0	0	522	505	
13	0	0	0	0	521	515	
14	0	0	0	0	519	517	
15	0	0	0	0	511	518	
0	0	0	0	0	502	519	
1	0	0	0	0	502	521	
2	0	0	0	0	499	520	
3	0	0	0	0	496	517	
4	0	0	0	0	496	519	
5	0	0	0	0	495	517	
6	0	0	0	0	498	519	
7	0	0	0	0	508	517	
8	0	0	0	0	510	511	
9	0	0	0	0	513	510	
10	0	0	0	0	509	510	
11	0	0	0	0	513	509	
12	0	0	0	0	515	511	
13	0	0	0	0	513	511	
14	0	0	0	0	510	513	
15	0	0	0	0	508	513	
0	0	0	0	0	508	508	
1	0	0	0	0	508	504	
2	0	0	0	0	512	497	
3	0	0	0	0	517	494	
4	0	0	0	0	516	495	
5	0	0	0	0	517	497	
6	0	0	0	0	520	503	
7	0	0	0	0	516	507	
8	0	0	0	0	513	515	
9	0	0	0	0	508	519	
10	0	0	0	0	505	518	
11	0	0	0	0	501	515	
12	0	0	0	0	497	518	
13	0	0	0	0	500	521	
14	0	0	0	0	507	520	
15	0	0	0	0	516	519	
0	0	0	0	0	517	520	
1	0	0	0	0	516	518	
2	0	0	0	0	520	515	
3	0	0	0	0	523	514	
4	0	0	0	0	520	514	
5	0	0	0	0	512	507	
6	0	0	0	0	509	501	
7	0	0	0	0	504	495	
8	0	0	0	0	504	496	
9	0	0	0	0	507	496	
10	0	0	0	0	512	488	
11	0	0	0	0	516	486	
12	0	0	0	0	519	473	
13	0	0	0	0	516	483	
14	0	0	0	0	518	504	
15	0	0	0	0	522	524	
0	0	0	0	0	522	537	
1	0	0	0	0	521	543	
2	0	0	0	0	531	548	
3	0	0	0	0	534	551	
4	0	0	0	0	525	554	
5	0	0	0	0	508	543	
6	0	0	0	0	489	521	
7	0	0	0	0	477	506	
8	0	0	0	0	473	498	
9	0	0	0	0	474	495	
10	0	0	0	0	471	497	
11	0	0	0	0	478	500	
12	0	0	0	0	487	497	
13	0	0	0	0	499	498	
14	0	0	0	0	515	497	
15	0	0	0	0	527	491	
0	0	0	0	0	527	490	
1	0	0	0	0	524	498	
2	0	0	0	0	523	505	
3	0	0	0	0	523	512	
4	0	0	0	0	518	511	
5	0	0	0	0	519	507	
6	0	0	0	0	514	511	
7	0	0	0	0	513	515	
8	0	0	0	0	515	517	
9	0	0	0	0	512	520	
10	0	0	0	0	513	517	
11	0	0	0	0	520	513	
12	0	0	0	0	518	519	
13	0	0	0	0	513	526	
14	0	0	0	0	514	528	
15	0	0	0	0	514	528	
0	0	0	0	0	511	523	
1	0	0	0	0	509	514	
2	0	0	0	0	505	510	
3	0	0	0	0	505	504	
4	0	0	0	0	506	498	
5	0	0	0	0	505	495	
6	0	0	0	0	508	498	
7	0	0	0	0	519	502	
8	0	0	0	0	523	503	
9	0	0	0	0	520	508	
10	0	0	0	0	521	511	
11	0	0	0	0	519	512	
12	0	0	0	0	518	509	
13	0	0	0	0	519	506	
14	0	0	0	0	510	507	
15	0	0	0	0	506	507	
0	0	0	0	0	501	508	
1	0	0	0	0	489	510	
2	0	0	0	0	487	511	
3	0	0	0	0	489	511	
4	0	0	0	0	489	513	
5	0	0	0	0	494	513	
6	0	0	0	0	502	508	
7	0	0	0	0	512	509	
8	0	0	0	0	519	505	
9	0	0	0	0	521	505	
10	0	0	0	0	519	507	
11	0	0	0	0	513	500	
12	0	0	0	0	514	498	
13	0	0	0	0	514	501	
14	0	0	0	0	515	508	
15	0	0	0	0	511	510	
0	0	0	0	0	517	509	
1	0	0	0	0	518	513	
2	0	0	0	0	517	510	
3	0	0	0	0	526	510	
4	0	0	0	0	524	515	
5	0	0	0	0	521	521	
6	0	0	0	0	519	525	
7	0	0	0	0	518	526	
8	0	0	0	0	513	524	
9	0	0	0	0	504	526	
10	0	0	0	0	500	528	
11	0	0	0	0	492	523	
12	0	0	0	0	488	521	
13	0	0	0	0	489	515	
14	0	0	0	0	496	512	
15	0	0	0	0	501	511	
0	0	0	0	0	505	504	
1	0	0	0	0	504	501	
2	0	0	0	0	508	491	
3	0	0	0	0	509	479	
4	0	0	0	0	511	477	
5	0	0	0	0	515	483	
6	0	0	0	0	522	492	
7	0	0	0	0	526	504	
8	0	0	0	0	530	521	
9	0	0	0	0	524	532	
10	0	0	0	0	515	535	
11	0	0	0	0	510	537	
12	0	0	0	0	505	536	
13	0	0	0	0	505	525	
14	0	0	0	0	508	511	
15	0	0	0	0	509	502	
0	0	0	0	0	509	502	
1	0	0	0	0	514	502	
2	0	0	0	0	527	504	
3	0	0	0	0	524	505	
4	0	0	0	0	516	510	
5	0	0	0	0	508	516	
6	0	0	0	0	503	518	
7	0	0	0	0	504	516	
8	0	0	0	0	504	513	
9	0	0	0	0	504	515	
10	0	0	0	0	500	515	
11	0	0	0	0	502	511	
12	0	0	0	0	507	508	
13	0	0	0	0	507	509	
14	0	0	0	0	508	506	
15	0	0	0	0	508	507	
0	0	0	0	0	511	505	
1	0	0	0	0	512	504	
2	0	0	0	0	516	503	
3	0	0	0	0	519	503	
4	0	0	0	0	517	502	
5	0	0	0	0	517	497	
6	0	0	0	0	517	495	
7	0	0	0	0	511	496	
8	0	0	0	0	512	500	
9	0	0	0	0	514	504	
10	0	0	0	0	507	510	
11	0	0	0	0	506	516	
12	0	0	0	0	510	516	
13	0	0	0	0	509	518	
14	0	0	0	0	508	515	
15	0	0	0	0	508	509	
0	0	0	0	0	507	504	
1	0	0	0	0	500	505	
2	0	0	0	0	495	512	
3	0	0	0	0	496	520	
4	0	0	0	0	499	518	
5	0	0	0	0	502	523	
6	0	0	0	0	504	528	
7	0	0	0	0	511	530	
8	0	0	0	0	515	528	
9	0	0	0	0	519	523	
10	0	0	0	0	517	518	
11	0	0	0	0	514	511	
12	0	0	0	0	519	509	
13	0	0	0	0	521	506	
14	0	0	0	0	522	500	
15	0	0	0	0	520	498	
0	0	0	0	0	518	502	
1	0	0	0	0	515	504	
2	0	0	0	0	511	509	
3	0	0	0	0	512	511	
4	0	0	0	0	511	510	
5	0	0	0	0	511	506	
6	0	0	0	0	508	504	
7	0	0	0	0	506	507	
8	0	0	0	0	511	508	
9	0	0	0	0	520	509	
10	0	0	0	0	511	506	
11	0	0	0	0	504	508	
12	0	0	0	0	502	505	
13	0	0	0	0	508	508	
14	0	0	0	0	507	514	
15	0	0	0	0	508	512	
0	0	0	0	0	511	511	
1	0	0	0	0	510	509	
2	0	0	0	0	508	512	
3	0	0	0	0	511	515	
4	0	0	0	0	522	512	
5	0	0	0	0	525	508	
6	0	0	0	0	521	507	
7	0	0	0	0	512	504	
8	0	0	0	0	505	507	
9	0	0	0	0	499	511	
10	0	0	0	0	499	518	
11	0	0	0	0	497	524	
12	0	0	0	0	499	519	
13	0	0	0	0	502	515	
14	0	0	0	0	499	514	
15	0	0	0	0	506	517	
0	0	0	0	0	514	515	
1	0	0	0	0	518	505	
2	0	0	0	0	516	499	
3	0	0	0	0	517	502	
4	0	0	0	0	522	508	
5	0	0	0	0	528	512	
6	0	0	0	0	519	516	
7	0	0	0	0	512	520	
8	0	0	0	0	513	518	
9	0	0	0	0	508	515	
10	0	0	0	0	504	516	
11	0	0	0	0	508	513	
12	0	0	0	0	510	507	
13	0	0	0	0	517	502	
14	0	0	0	0	521	498	
15	0	0	0	0	516	496	
0	0	0	0	0	512	495	
1	0	0	0	0	505	502	
2	0	0	0	0	496	506	
3	0	0	0	0	486	510	
4	0	0	0	0	487	513	
5	0	0	0	0	493	517	
6	0	0	0	0	503	522	
7	0	0	0	0	513	521	
8	0	0	0	0	519	514	
9	0	0	0	0	521	509	
10	0	0	0	0	525	510	
11	0	0	0	0	530	510	
12	0	0	0	0	529	509	
13	0	0	0	0	527	511	
14	0	0	0	0	519	508	
15	0	0	0	0	511	508	
0	0	0	0	0	503	505	
1	0	0	0	0	501	503	
2	0	0	0	0	504	504	
3	0	0	0	0	505	498	
4	0	0	0	0	504	492	
5	0	0	0	0	508	493	
6	0	0	0	0	513	498	
7	0	0	0	0	508	509	
8	0	0	0	0	512	518	
9	0	0	0	0	508	525	
10	0	0	0	0	512	529	
11	0	0	0	0	505	533	
12	0	0	0	0	504	537	
13	0	0	0	0	507	536	
14	0	0	0	0	507	532	
15	0	0	0	0	510	523	
0	0	0	0	0	510	515	
1	0	0	0	0	511	510	
2	0	0	0	0	512	506	
3	0	0	0	0	513	503	
4	0	0	0	0	514	501	
5	0	0	0	0	511	500	
6	0	0	0	0	513	500	
7	0	0	0	0	512	493	
8	0	0	0	0	513	486	
9	0	0	0	0	518	490	
10	0	0	0	0	522	491	
11	0	0	0	0	519	499	
12	0	0	0	0	517	508	
13	0	0	0	0	513	514	
14	0	0	0	0	515	519	
15	0	0	0	0	512	525	
0	0	0	0	0	513	527	
1	0	0	0	0	504	520	
2	0	0	0	0	500	521	
3	0	0	0	0	498	521	
4	0	0	0	0	504	511	
5	0	0	0	0	506	508	
6	0	0	0	0	507	511	
7	0	0	0	0	508	512	
8	0	0	0	0	510	514	
9	0	0	0	0	499	514	
10	0	0	0	0	503	511	
11	0	0	0	0	512	503	
12	0	0	0	0	513	497	
13	0	0	0	0	508	492	
14	0	0	0	0	509	483	
15	0	0	0	0	508	480	
0	0	0	0	0	512	490	
1	0	0	0	0	518	504	
2	0	0	0	0	519	520	
3	0	0	0	0	516	531	
4	0	0	0	0	511	544	
5	0	0	0	0	512	553	
6	0	0	0	0	512	551	
7	0	0	0	0	511	540	
8	0	0	0	0	506	530	
9	0	0	0	0	508	518	
10	0	0	0	0	507	505	
11	0	0	0	0	513	499	
12	0	0	0	0	520	499	
13	0	0	0	0	520	497	
14	0	0	0	0	519	496	
15	0	0	0	0	512	495	
0	0	0	0	0	513	497	
1	0	0	0	0	514	501	
2	0	0	0	0	512	504	
3	0	0	0	0	515	507	
4	0	0	0	0	514	508	
5	0	0	0	0	513	507	
6	0	0	0	0	507	508	
7	0	0	0	0	492	507	
8	0	0	0	0	491	505	
9	0	0	0	0	489	496	
10	0	0	0	0	494	489	
11	0	0	0	0	502	492	
12	0	0	0	0	502	500	
13	0	0	0	0	510	500	
14	0	0	0	0	518	505	
15	0	0	0	0	521	518	
0	0	0	0	0	523	524	
1	0	0	0	0	521	530	
2	0	0	0	0	515	539	
3	0	0	0	0	513	536	
4	0	0	0	0	514	534	
5	0	0	0	0	519	534	
6	0	0	0	0	519	530	
7	0	0	0	0	515	520	
8	0	0	0	0	509	504	
9	0	0	0	0	500	496	
10	0	0	0	0	503	495	
11	0	0	0	0	508	489	
12	0	0	0	0	508	485	
13	0	0	0	0	516	484	
14	0	0	0	0	519	489	
15	0	0	0	0	517	496	
0	0	0	0	0	515	501	
1	0	0	0	0	511	509	
2	0	0	0	0	501	518	
3	0	0	0	0	499	524	
4	0	0	0	0	507	534	
5	0	0	0	0	509	539	
6	0	0	0	0	512	536	
7	0	0	0	0	506	527	
8	0	0	0	0	507	521	
9	0	0	0	0	510	519	
10	0	0	0	0	511	512	
11	0	0	0	0	511	507	
12	0	0	0	0	513	503	
13	0	0	0	0	518	503	
14	0	0	0	0	522	503	
15	0	0	0	0	520	503	
0	0	0	0	0	522	502	
1	0	0	0	0	517	487	
2	0	0	0	0	514	483	
3	0	0	0	0	510	489	
4	0	0	0	0	504	499	
5	0	0	0	0	501	510	
6	0	0	0	0	501	518	
7	0	0	0	0	500	512	
8	0	0	0	0	506	508	
9	0	0	0	0	510	511	
10	0	0	0	0	513	515	
11	0	0	0	0	509	517	
12	0	0	0	0	505	523	
13	0	0	0	0	496	524	
14	0	0	0	0	491	525	
15	0	0	0	0	499	524	
0	0	0	0	0	508	528	
1	0	0	0	0	510	531	
2	0	0	0	0	515	520	
3	0	0	0	0	520	512	
4	0	0	0	0	523	504	
5	0	0	0	0	529	499	
6	0	0	0	0	521	497	
7	0	0	0	0	516	498	
8	0	0	0	0	509	499	
9	0	0	0	0	509	505	
10	0	0	0	0	511	508	
11	0	0	0	0	512	508	
12	0	0	0	0	512	510	
13	0	0	0	0	515	509	
14	0	0	0	0	519	508	
15	0	0	0	0	518	509	
0	0	0	0	0	512	508	
1	0	0	0	0	506	507	
2	0	0	0	0	498	506	
3	0	0	0	0	496	510	
4	0	0	0	0	496	510	
5	0	0	0	0	505	507	
6	0	0	0	0	510	505	
7	0	0	0	0	512	505	
8	0	0	0	0	516	504	
9	0	0	0	0	520	498	
10	0	0	0	0	516	497	
11	0	0	0	0	513	502	
12	0	0	0	0	508	509	
13	0	0	0	0	510	521	
14	0	0	0	0	507	531	
15	0	0	0	0	510	539	
0	0	0	0	0	513	537	
1	0	0	0	0	518	533	
2	0	0	0	0	518	525	
3	0	0	0	0	518	518	
4	0	0	0	0	516	504	
5	0	0	0	0	514	487	
6	0	0	0	0	512	485	
7	0	0	0	0	506	487	
8	0	0	0	0	507	500	
9	0	0	0	0	505	508	
10	0	0	0	0	508	518	
11	0	0	0	0	508	524	
12	0	0	0	0	513	526	
13	0	0	0	0	515	527	
14	0	0	0	0	511	524	
15	0	0	0	0	513	521	
0	0	0	0	0	512	511	
1	0	0	0	0	512	500	
2	0	0	0	0	510	499	
3	0	0	0	0	508	494	
4	0	0	0	0	508	483	
5	0	0	0	0	508	484	
6	0	0	0	0	503	496	
7	0	0	0	0	502	510	
8	0	0	0	0	499	521	
9	0	0	0	0	504	524	
10	0	0	0	0	513	530	
11	0	0	0	0	518	529	
12	0	0	0	0	517	532	
13	0	0	0	0	516	530	
14	0	0	0	0	512	521	
15	0	0	0	0	512	508	
0	0	0	0	0	510	503	
1	0	0	0	0	507	499	
2	0	0	0	0	506	503	
3	0	0	0	0	506	500	
4	0	0	0	0	508	498	
5	0	0	0	0	508	494	
6	0	0	0	0	515	499	
7	0	0	0	0	519	511	
8	0	0	0	0	520	512	
9	0	0	0	0	519	513	
10	0	0	0	0	515	511	
11	0	0	0	0	511	512	
12	0	0	0	0	505	505	
13	0	0	0	0	502	498	
14	0	0	0	0	500	494	
15	0	0	0	0	500	492	
0	0	0	0	0	504	499	
1	0	0	0	0	504	508	
2	0	0	0	0	508	518	
3	0	0	0	0	515	517	
4	0	0	0	0	522	527	
5	0	0	0	0	516	535	
6	0	0	0	0	516	536	
7	0	0	0	0	513	536	
8	0	0	0	0	511	536	
9	0	0	0	0	507	528	
10	0	0	0	0	506	516	
11	0	0	0	0	502	509	
12	0	0	0	0	503	505	
13	0	0	0	0	501	502	
14	0	0	0	0	507	499	
15	0	0	0	0	513	501	
0	0	0	0	0	513	500	
1	0	0	0	0	516	503	
2	0	0	0	0	519	502	
3	0	0	0	0	526	501	
4	0	0	0	0	524	501	
5	0	0	0	0	526	501	
6	0	0	0	0	523	497	
7	0	0	0	0	520	492	
8	0	0	0	0	515	492	
9	0	0	0	0	508	499	
10	0	0	0	0	505	508	
11	0	0	0	0	497	518	
12	0	0	0	0	494	527	
13	0	0	0	0	491	524	
14	0	0	0	0	486	522	
15	0	0	0	0	494	525	
0	0	0	0	0	500	526	
1	0	0	0	0	507	518	
2	0	0	0	0	508	511	
3	0	0	0	0	508	511	
4	0	0	0	0	510	511	
5	0	0	0	0	511	511	
6	0	0	0	0	515	509	
7	0	0	0	0	514	506	
8	0	0	0	0	514	505	
9	0	0	0	0	518	494	
10	0	0	0	0	520	491	
11	0	0	0	0	522	495	
12	0	0	0	0	517	493	
13	0	0	0	0	517	500	
14	0	0	0	0	516	512	
15	0	0	0	0	510	527	
0	0	0	0	0	504	533	
1	0	0	0	0	508	535	
2	0	0	0	0	509	532	
3	0	0	0	0	504	526	
4	0	0	0	0	505	523	
5	0	0	0	0	504	518	
6	0	0	0	0	507	513	
7	0	0	0	0	508	512	
8	0	0	0	0	515	509	
9	0	0	0	0	519	501	
10	0	0	0	0	516	492	
11	0	0	0	0	515	492	
12	0	0	0	0	514	497	
13	0	0	0	0	514	508	
14	0	0	0	0	512	514	
15	0	0	0	0	515	520	
0	0	0	0	0	519	525	
1	0	0	0	0	518	528	
2	0	0	0	0	512	524	
3	0	0	0	0	509	510	
4	0	0	0	0	508	502	
5	0	0	0	0	509	495	
6	0	0	0	0	508	487	
7	0	0	0	0	506	487	
8	0	0	0	0	503	503	
9	0	0	0	0	502	513	
10	0	0	0	0	502	518	
11	0	0	0	0	507	524	
12	0	0	0	0	510	519	
13	0	0	0	0	515	502	
14	0	0	0	0	514	496	
15	0	0	0	0	514	499	
0	0	0	0	0	510	503	
1	0	0	0	0	508	513	
2	0	0	0	0	507	520	
3	0	0	0	0	511	521	
4	0	0	0	0	513	523	
5	0	0	0	0	514	521	
6	0	0	0	0	515	520	
7	0	0	0	0	518	516	
8	0	0	0	0	517	515	
9	0	0	0	0	513	505	
10	0	0	0	0	511	503	
11	0	0	0	0	508	493	
12	0	0	0	0	503	479	
13	0	0	0	0	497	476	
14	0	0	0	0	502	484	
15	0	0	0	0	505	498	
0	0	0	0	0	504	513	
1	0	0	0	0	503	526	
2	0	0	0	0	500	535	
3	0	0	0	0	502	540	
4	0	0	0	0	508	546	
5	0	0	0	0	510	550	
6	0	0	0	0	515	538	
7	0	0	0	0	513	516	
8	0	0	0	0	515	502	
9	0	0	0	0	525	489	
10	0	0	0	0	533	483	
11	0	0	0	0	529	487	
12	0	0	0	0	521	494	
13	0	0	0	0	513	499	
14	0	0	0	0	511	500	
15	0	0	0	0	504	482	
0	0	0	0	0	493	483	
1	0	0	0	0	495	495	
2	0	0	0	0	496	508	
3	0	0	0	0	508	512	
4	0	0	0	0	519	512	
5	0	0	0	0	523	512	
6	0	0	0	0	518	526	
7	0	0	0	0	509	547	
8	0	0	0	0	501	563	
9	0	0	0	0	497	560	
10	0	0	0	0	498	546	
11	0	0	0	0	495	537	
12	0	0	0	0	499	537	
13	0	0	0	0	504	525	
14	0	0	0	0	517	510	
15	0	0	0	0	520	503	
0	0	0	0	0	519	498	
1	0	0	0	0	520	493	
2	0	0	0	0	519	491	
3	0	0	0	0	520	489	
4	0	0	0	0	516	492	
5	0	0	0	0	512	493	
6	0	0	0	0	509	494	
7	0	0	0	0	509	496	
8	0	0	0	0	512	499	
9	0	0	0	0	512	499	
10	0	0	0	0	515	496	
11	0	0	0	0	512	492	
12	0	0	0	0	514	487	
13	0	0	0	0	512	484	
14	0	0	0	0	512	478	
15	0	0	0	0	512	463	
0	0	0	0	0	513	467	
1	0	0	0	0	511	485	
2	0	0	0	0	514	513	
3	0	0	0	0	513	542	
4	0	0	0	0	511	565	
5	0	0	0	0	507	578	
6	0	0	0	0	505	585	
7	0	0	0	0	507	576	
8	0	0	0	0	508	569	
9	0	0	0	0	505	555	
10	0	0	0	0	504	530	
11	0	0	0	0	503	509	
12	0	0	0	0	504	497	
13	0	0	0	0	507	489	
14	0	0	0	0	510	483	
15	0	0	0	0	510	483	
0	0	0	0	0	511	484	
1	0	0	0	0	509	491	
2	0	0	0	0	511	495	
3	0	0	0	0	513	496	
4	0	0	0	0	515	503	
5	0	0	0	0	516	503	
6	0	0	0	0	514	501	
7	0	0	0	0	512	496	
8	0	0	0	0	512	481	
9	0	0	0	0	514	472	
10	0	0	0	0	511	472	
11	0	0	0	0	507	487	
12	0	0	0	0	508	508	
13	0	0	0	0	509	526	
14	0	0	0	0	509	544	
15	0	0	0	0	508	551	
0	0	0	0	0	510	545	
1	0	0	0	0	514	540	
2	0	0	0	0	513	532	
3	0	0	0	0	515	518	
4	0	0	0	0	514	498	
5	0	0	0	0	514	496	
6	0	0	0	0	515	495	
7	0	0	0	0	517	504	
8	0	0	0	0	521	516	
9	0	0	0	0	519	534	
10	0	0	0	0	521	539	
11	0	0	0	0	517	536	
12	0	0	0	0	509	540	
13	0	0	0	0	500	541	
14	0	0	0	0	496	528	
15	0	0	0	0	493	512	
0	0	0	0	0	495	503	
1	0	0	0	0	490	492	
2	0	0	0	0	491	487	
3	0	0	0	0	504	487	
4	0	0	0	0	510	488	
5	0	0	0	0	517	489	
6	0	0	0	0	518	494	
7	0	0	0	0	512	496	
8	0	0	0	0	512	496	
9	0	0	0	0	514	492	
10	0	0	0	0	523	493	
11	0	0	0	0	533	497	
12	0	0	0	0	531	498	
13	0	0	0	0	527	499	
14	0	0	0	0	520	494	
15	0	0	0	0	511	494	
0	0	0	0	0	499	499	
1	0	0	0	0	491	508	
2	0	0	0	0	487	523	
3	0	0	0	0	487	530	
4	0	0	0	0	482	532	
5	0	0	0	0	487	528	
6	0	0	0	0	506	530	
7	0	0	0	0	516	528	
8	0	0	0	0	517	519	
9	0	0	0	0	519	506	
10	0	0	0	0	517	500	
11	0	0	0	0	521	493	
12	0	0	0	0	522	484	
13	0	0	0	0	519	483	
14	0	0	0	0	519	495	
15	0	0	0	0	520	517	
0	0	0	0	0	518	536	
1	0	0	0	0	518	543	
2	0	0	0	0	516	540	
3	0	0	0	0	516	529	
4	0	0	0	0	509	506	
5	0	0	0	0	511	500	
6	0	0	0	0	509	502	
7	0	0	0	0	508	510	
8	0	0	0	0	508	518	
9	0	0	0	0	509	524	
10	0	0	0	0	505	531	
11	0	0	0	0	507	540	
12	0	0	0	0	504	538	
13	0	0	0	0	511	523	
14	0	0	0	0	513	515	
15	0	0	0	0	513	510	
0	0	0	0	0	523	506	
1	0	0	0	0	529	503	
2	0	0	0	0	524	500	
3	0	0	0	0	515	499	
4	0	0	0	0	508	496	
5	0	0	0	0	498	495	
6	0	0	0	0	491	495	
7	0	0	0	0	492	487	
8	0	0	0	0	486	485	
9	0	0	0	0	494	489	
10	0	0	0	0	506	486	
11	0	0	0	0	518	485	
12	0	0	0	0	519	488	
13	0	0	0	0	515	489	
14	0	0	0	0	515	501	
15	0	0	0	0	510	519	
0	0	0	0	0	510	536	
1	0	0	0	0	513	537	
2	0	0	0	0	509	534	
3	0	0	0	0	508	534	
4	0	0	0	0	507	540	
5	0	0	0	0	510	539	
6	0	0	0	0	513	532	
7	0	0	0	0	511	528	
8	0	0	0	0	519	526	
9	0	0	0	0	519	520	
10	0	0	0	0	515	520	
11	0	0	0	0	514	521	
12	0	0	0	0	513	515	
13	0	0	0	0	516	511	
14	0	0	0	0	515	508	
15	0	0	0	0	523	504	
0	0	0	0	0	524	496	
1	0	0	0	0	516	494	
2	0	0	0	0	511	495	
3	0	0	0	0	505	494	
4	0	0	0	0	501	488	
5	0	0	0	0	496	489	
6	0	0	0	0	493	488	
7	0	0	0	0	492	478	
8	0	0	0	0	495	480	
9	0	0	0	0	500	494	
10	0	0	0	0	512	497	
11	0	0	0	0	515	492	
12	0	0	0	0	513	499	
13	0	0	0	0	510	516	
14	0	0	0	0	516	535	
15	0	0	0	0	519	545	
0	0	0	0	0	519	535	
1	0	0	0	0	516	533	
2	0	0	0	0	518	533	
3	0	0	0	0	519	543	
4	0	0	0	0	515	545	
5	0	0	0	0	512	534	
6	0	0	0	0	511	524	
7	0	0	0	0	509	519	
8	0	0	0	0	510	512	
9	0	0	0	0	509	503	
10	0	0	0	0	513	493	
11	0	0	0	0	514	494	
12	0	0	0	0	508	491	
13	0	0	0	0	507	479	
14	0	0	0	0	508	463	
15	0	0	0	0	504	466	
0	0	0	0	0	507	487	
1	0	0	0	0	504	503	
2	0	0	0	0	504	519	
3	0	0	0	0	509	535	
4	0	0	0	0	515	540	
5	0	0	0	0	514	547	
6	0	0	0	0	511	547	
7	0	0	0	0	506	541	
8	0	0	0	0	507	531	
9	0	0	0	0	515	515	
10	0	0	0	0	518	505	
11	0	0	0	0	519	505	
12	0	0	0	0	511	500	
13	0	0	0	0	507	498	
14	0	0	0	0	505	499	
15	0	0	0	0	510	501	
0	0	0	0	0	511	502	
1	0	0	0	0	512	504	
2	0	0	0	0	511	503	
3	0	0	0	0	510	503	
4	0	0	0	0	508	504	
5	0	0	0	0	510	507	
6	0	0	0	0	513	505	
7	0	0	0	0	513	508	
8	0	0	0	0	508	508	
9	0	0	0	0	510	510	
10	0	0	0	0	508	507	
11	0	0	0	0	510	505	
12	0	0	0	0	511	510	
13	0	0	0	0	512	508	
14	0	0	0	0	508	510	
15	0	0	0	0	503	509	
0	0	0	0	0	501	508	
1	0	0	0	0	503	505	
2	0	0	0	0	508	504	
3	0	0	0	0	514	504	
4	0	0	0	0	517	507	
5	0	0	0	0	518	510	
6	0	0	0	0	517	511	
7	0	0	0	0	516	513	
8	0	0	0	0	515	513	
9	0	0	0	0	507	515	
10	0	0	0	0	503	519	
11	0	0	0	0	499	525	
12	0	0	0	0	502	526	
13	0	0	0	0	503	525	
14	0	0	0	0	504	524	
15	0	0	0	0	508	524	
0	0	0	0	0	515	519	
1	0	0	0	0	515	513	
2	0	0	0	0	513	508	
3	0	0	0	0	516	505	
4	0	0	0	0	516	503	
5	0	0	0	0	513	502	
6	0	0	0	0	513	503	
7	0	0	0	0	511	494	
8	0	0	0	0	515	484	
9	0	0	0	0	509	486	
10	0	0	0	0	510	494	
11	0	0	0	0	511	502	
12	0	0	0	0	511	511	
13	0	0	0	0	509	513	
14	0	0	0	0	510	521	
15	0	0	0	0	512	530	
0	0	0	0	0	512	531	
1	0	0	0	0	514	528	
2	0	0	0	0	511	523	
3	0	0	0	0	507	508	
4	0	0	0	0	510	489	
5	0	0	0	0	509	486	
6	0	0	0	0	509	494	
7	0	0	0	0	512	503	
8	0	0	0	0	513	514	
9	0	0	0	0	515	520	
10	0	0	0	0	517	524	
11	0	0	0	0	524	526	
12	0	0	0	0	521	526	
13	0	0	0	0	519	527	
14	0	0	0	0	515	522	
15	0	0	0	0	518	519	
0	0	0	0	0	516	518	
1	0	0	0	0	510	515	
2	0	0	0	0	501	521	
3	0	0	0	0	491	521	
4	0	0	0	0	493	519	
5	0	0	0	0	496	512	
6	0	0	0	0	502	508	
7	0	0	0	0	513	505	
8	0	0	0	0	516	505	
9	0	0	0	0	513	502	
10	0	0	0	0	510	499	
11	0	0	0	0	502	495	
12	0	0	0	0	497	497	
13	0	0	0	0	492	493	
14	0	0	0	0	489	480	
15	0	0	0	0	492	479	
0	0	0	0	0	489	481	
1	0	0	0	0	503	491	
2	0	0	0	0	520	506	
3	0	0	0	0	530	515	
4	0	0	0	0	536	523	
5	0	0	0	0	539	527	
6	0	0	0	0	534	531	
7	0	0	0	0	531	540	
8	0	0	0	0	523	541	
9	0	0	0	0	519	540	
10	0	0	0	0	512	528	
11	0	0	0	0	504	516	
12	0	0	0	0	499	511	
13	0	0	0	0	501	514	
14	0	0	0	0	504	518	
15	0	0	0	0	509	507	
0	0	0	0	0	514	495	
1	0	0	0	0	515	481	
2	0	0	0	0	509	481	
3	0	0	0	0	506	487	
4	0	0	0	0	499	493	
5	0	0	0	0	499	499	
6	0	0	0	0	501	508	
7	0	0	0	0	499	512	
8	0	0	0	0	502	524	
9	0	0	0	0	502	536	
10	0	0	0	0	508	535	
11	0	0	0	0	519	528	
12	0	0	0	0	523	522	
13	0	0	0	0	525	517	
14	0	0	0	0	530	508	
15	0	0	0	0	532	487	
0	0	0	0	0	528	470	
1	0	0	0	0	519	468	
2	0	0	0	0	509	481	
3	0	0	0	0	506	493	
4	0	0	0	0	499	496	
5	0	0	0	0	489	500	
6	0	0	0	0	488	508	
7	0	0	0	0	496	532	
8	0	0	0	0	505	535	
9	0	0	0	0	512	540	
10	0	0	0	0	521	540	
11	0	0	0	0	522	541	
12	0	0	0	0	517	542	
13	0	0	0	0	509	545	
14	0	0	0	0	506	543	
15	0	0	0	0	507	535	
0	0	0	0	0	510	520	
1	0	0	0	0	515	513	
2	0	0	0	0	517	505	
3	0	0	0	0	510	495	
4	0	0	0	0	504	481	
5	0	0	0	0	501	479	
6	0	0	0	0	505	483	
7	0	0	0	0	512	490	
8	0	0	0	0	513	499	
9	0	0	0	0	520	508	
10	0	0	0	0	520	512	
11	0	0	0	0	521	513	
12	0	0	0	0	513	519	
13	0	0	0	0	503	518	
14	0	0	0	0	498	509	
15	0	0	0	0	496	504	
0	0	0	0	0	496	499	
1	0	0	0	0	500	500	
2	0	0	0	0	508	504	
3	0	0	0	0	515	504	
4	0	0	0	0	520	499	
5	0	0	0	0	516	498	
6	0	0	0	0	518	499	
7	0	0	0	0	515	504	
8	0	0	0	0	512	511	
9	0	0	0	0	512	517	
10	0	0	0	0	512	519	
11	0	0	0	0	511	523	
12	0	0	0	0	510	525	
13	0	0	0	0	511	519	
14	0	0	0	0	516	516	
15	0	0	0	0	518	516	
0	0	0	0	0	517	518	
1	0	0	0	0	513	520	
2	0	0	0	0	511	515	
3	0	0	0	0	508	509	
4	0	0	0	0	508	511	
5	0	0	0	0	508	512	
6	0	0	0	0	510	508	
7	0	0	0	0	509	508	
8	0	0	0	0	509	505	
9	0	0	0	0	506	506	
10	0	0	0	0	508	507	
11	0	0	0	0	511	508	
12	0	0	0	0	514	500	
13	0	0	0	0	512	494	
14	0	0	0	0	512	482	
15	0	0	0	0	512	482	
0	0	0	0	0	515	484	
1	0	0	0	0	515	495	
2	0	0	0	0	513	509	
3	0	0	0	0	518	524	
4	0	0	0	0	512	532	
5	0	0	0	0	510	541	
6	0	0	0	0	507	539	
7	0	0	0	0	504	536	
8	0	0	0	0	502	526	
9	0	0	0	0	499	525	
10	0	0	0	0	502	515	
11	0	0	0	0	504	507	
12	0	0	0	0	505	505	
13	0	0	0	0	510	506	
14	0	0	0	0	510	508	
15	0	0	0	0	513	510	
0	0	0	0	0	516	510	
1	0	0	0	0	513	508	
2	0	0	0	0	512	512	
3	0	0	0	0	512	516	
4	0	0	0	0	511	516	
5	0	0	0	0	508	506	
6	0	0	0	0	509	497	
7	0	0	0	0	510	498	
8	0	0	0	0	513	498	
9	0	0	0	0	511	500	
10	0	0	0	0	511	509	
11	0	0	0	0	510	519	
12	0	0	0	0	517	524	
13	0	0	0	0	518	526	
14	0	0	0	0	514	518	
15	0	0	0	0	510	515	
0	0	0	0	0	510	515	
1	0	0	0	0	507	513	
2	0	0	0	0	508	507	
3	0	0	0	0	507	500	
4	0	0	0	0	505	500	
5	0	0	0	0	511	503	
6	0	0	0	0	511	510	
7	0	0	0	0	510	516	
8	0	0	0	0	515	517	
9	0	0	0	0	515	519	
10	0	0	0	0	518	512	
11	0	0	0	0	523	512	
12	0	0	0	0	523	507	
13	0	0	0	0	522	504	
14	0	0	0	0	518	503	
15	0	0	0	0	509	504	
0	0	0	0	0	502	508	
1	0	0	0	0	503	516	
2	0	0	0	0	500	523	
3	0	0	0	0	497	524	
4	0	0	0	0	494	521	
5	0	0	0	0	498	518	
6	0	0	0	0	504	511	
7	0	0	0	0	510	505	
8	0	0	0	0	520	497	
9	0	0	0	0	531	486	
10	0	0	0	0	525	469	
11	0	0	0	0	518	476	
12	0	0	0	0	517	487	
13	0	0	0	0	514	505	
14	0	0	0	0	509	519	
15	0	0	0	0	505	529	
0	0	0	0	0	497	536	
1	0	0	0	0	489	539	
2	0	0	0	0	494	533	
3	0	0	0	0	501	524	
4	0	0	0	0	507	511	
5	0	0	0	0	504	504	
6	0	0	0	0	504	502	
7	0	0	0	0	509	503	
8	0	0	0	0	507	498	
9	0	0	0	0	507	492	
10	0	0	0	0	507	499	
11	0	0	0	0	509	510	
12	0	0	0	0	514	516	
13	0	0	0	0	517	520	
14	0	0	0	0	519	522	
15	0	0	0	0	521	520	
0	0	0	0	0	517	521	
1	0	0	0	0	517	518	
2	0	0	0	0	519	504	
3	0	0	0	0	518	500	
4	0	0	0	0	517	494	
5	0	0	0	0	515	497	
6	0	0	0	0	515	504	
7	0	0	0	0	515	510	
8	0	0	0	0	515	513	
9	0	0	0	0	524	504	
10	0	0	0	0	528	500	
11	0	0	0	0	527	496	
12	0	0	0	0	518	499	
13	0	0	0	0	509	511	
14	0	0	0	0	500	517	
15	0	0	0	0	499	516	
0	0	0	0	0	492	521	
1	0	0	0	0	490	532	
2	0	0	0	0	497	546	
3	0	0	0	0	497	551	
4	0	0	0	0	504	540	
5	0	0	0	0	509	528	
6	0	0	0	0	509	521	
7	0	0	0	0	513	514	
8	0	0	0	0	512	506	
9	0	0	0	0	515	499	
10	0	0	0	0	513	494	
11	0	0	0	0	521	496	
12	0	0	0	0	521	497	
13	0	0	0	0	523	499	
14	0	0	0	0	518	500	
15	0	0	0	0	521	491	
0	0	0	0	0	513	483	
1	0	0	0	0	509	487	
2	0	0	0	0	504	493	
3	0	0	0	0	503	494	
4	0	0	0	0	503	481	
5	0	0	0	0	508	487	
6	0	0	0	0	509	499	
7	0	0	0	0	514	526	
8	0	0	0	0	514	549	
9	0	0	0	0	514	556	
10	0	0	0	0	509	553	
11	0	0	0	0	510	548	
12	0	0	0	0	508	544	
13	0	0	0	0	505	530	
14	0	0	0	0	505	520	
15	0	0	0	0	501	506	
0	0	0	0	0	504	496	
1	0	0	0	0	512	489	
2	0	0	0	0	524	490	
3	0	0	0	0	524	493	
4	0	0	0	0	517	493	
5	0	0	0	0	512	495	
6	0	0	0	0	511	500	
7	0	0	0	0	506	503	
8	0	0	0	0	505	508	
9	0	0	0	0	502	511	
10	0	0	0	0	500	511	
11	0	0	0	0	498	510	
12	0	0	0	0	504	507	
13	0	0	0	0	512	508	
14	0	0	0	0	513	510	
15	0	0	0	0	512	512	
0	0	0	0	0	511	508	
1	0	0	0	0	511	504	
2	0	0	0	0	514	504	
3	0	0	0	0	514	507	
4	0	0	0	0	514	507	
5	0	0	0	0	514	512	
6	0	0	0	0	511	516	
7	0	0	0	0	509	520	
8	0	0	0	0	504	525	
9	0	0	0	0	506	527	
10	0	0	0	0	510	524	
11	0	0	0	0	511	521	
12	0	0	0	0	512	519	
13	0	0	0	0	511	512	
14	0	0	0	0	511	509	
15	0	0	0	0	512	506	
0	0	0	0	0	515	504	
1	0	0	0	0	516	503	
2	0	0	0	0	510	504	
3	0	0	0	0	514	499	
4	0	0	0	0	513	497	
5	0	0	0	0	512	500	
6	0	0	0	0	519	501	
7	0	0	0	0	524	495	
8	0	0	0	0	524	499	
9	0	0	0	0	522	503	
10	0	0	0	0	516	505	
11	0	0	0	0	511	513	
12	0	0	0	0	506	521	
13	0	0	0	0	500	522	
14	0	0	0	0	491	522	
15	0	0	0	0	489	521	
0	0	0	0	0	491	528	
1	0	0	0	0	484	528	
2	0	0	0	0	482	531	
3	0	0	0	0	491	527	
4	0	0	0	0	501	525	
5	0	0	0	0	510	524	
6	0	0	0	0	519	521	
7	0	0	0	0	523	514	
8	0	0	0	0	525	507	
9	0	0	0	0	527	499	
10	0	0	0	0	529	497	
11	0	0	0	0	523	493	
12	0	0	0	0	521	490	
13	0	0	0	0	518	483	
14	0	0	0	0	516	488	
15	0	0	0	0	515	497	
0	0	0	0	0	508	507	
1	0	0	0	0	511	514	
2	0	0	0	0	510	516	
3	0	0	0	0	507	510	
4	0	0	0	0	512	515	
5	0	0	0	0	514	520	
6	0	0	0	0	515	527	
7	0	0	0	0	513	523	
8	0	0	0	0	514	516	
9	0	0	0	0	515	511	
10	0	0	0	0	516	508	
11	0	0	0	0	521	506	
12	0	0	0	0	516	503	
13	0	0	0	0	513	505	
14	0	0	0	0	507	510	
15	0	0	0	0	507	512	
0	0	0	0	0	504	511	
1	0	0	0	0	499	512	
2	0	0	0	0	502	506	
3	0	0	0	0	498	497	
4	0	0	0	0	499	497	
5	0	0	0	0	506	496	
6	0	0	0	0	509	493	
7	0	0	0	0	512	492	
8	0	0	0	0	512	502	
9	0	0	0	0	512	511	
10	0	0	0	0	510	523	
11	0	0	0	0	510	539	
12	0	0	0	0	507	547	
13	0	0	0	0	512	541	
14	0	0	0	0	517	537	
15	0	0	0	0	517	536	
0	0	0	0	0	511	526	
1	0	0	0	0	512	515	
2	0	0	0	0	509	505	
3	0	0	0	0	504	499	
4	0	0	0	0	508	494	
5	0	0	0	0	507	492	
6	0	0	0	0	513	495	
7	0	0	0	0	519	499	
8	0	0	0	0	525	500	
9	0	0	0	0	521	497	
10	0	0	0	0	514	494	
11	0	0	0	0	507	491	
12	0	0	0	0	501	495	
13	0	0	0	0	495	500	
14	0	0	0	0	503	507	
15	0	0	0	0	508	510	
0	0	0	0	0	509	515	
1	0	0	0	0	509	523	
2	0	0	0	0	518	526	
3	0	0	0	0	523	525	
4	0	0	0	0	519	524	
5	0	0	0	0	516	515	
6	0	0	0	0	514	511	
7	0	0	0	0	506	508	
8	0	0	0	0	497	514	
9	0	0	0	0	495	521	
10	0	0	0	0	495	522	
11	0	0	0	0	494	524	
12	0	0	0	0	498	529	
13	0	0	0	0	506	523	
14	0	0	0	0	501	518	
15	0	0	0	0	502	513	
0	0	0	0	0	508	504	
1	0	0	0	0	520	500	
2	0	0	0	0	527	501	
3	0	0	0	0	528	501	
4	0	0	0	0	527	502	
5	0	0	0	0	519	507	
6	0	0	0	0	515	510	
7	0	0	0	0	512	515	
8	0	0	0	0	509	511	
9	0	0	0	0	510	512	
10	0	0	0	0	507	512	
11	0	0	0	0	509	513	
12	0	0	0	0	511	509	
13	0	0	0	0	515	498	
14	0	0	0	0	512	492	
15	0	0	0	0	513	495	
0	0	0	0	0	515	498	
1	0	0	0	0	511	504	
2	0	0	0	0	504	507	
3	0	0	0	0	501	515	
4	0	0	0	0	507	514	
5	0	0	0	0	508	514	
6	0	0	0	0	508	520	
7	0	0	0	0	511	525	
8	0	0	0	0	511	525	
9	0	0	0	0	515	518	
10	0	0	0	0	521	508	
11	0	0	0	0	539	495	
12	0	0	0	0	542	496	
13	0	0	0	0	532	497	
14	0	0	0	0	518	498	
15	0	0	0	0	506	504	
0	0	0	0	0	502	512	
1	0	0	0	0	490	517	
2	0	0	0	0	486	520	
3	0	0	0	0	485	526	
4	0	0	0	0	487	522	
5	0	0	0	0	487	516	
6	0	0	0	0	499	515	
7	0	0	0	0	512	510	
8	0	0	0	0	520	501	
9	0	0	0	0	518	503	
10	0	0	0	0	517	507	
11	0	0	0	0	517	509	
12	0	0	0	0	516	508	
13	0	0	0	0	518	511	
14	0	0	0	0	518	511	
15	0	0	0	0	519	510	
0	0	0	0	0	519	513	
1	0	0	0	0	519	506	
2	0	0	0	0	520	501	
3	0	0	0	0	517	500	
4	0	0	0	0	519	496	
5	0	0	0	0	515	499	
6	0	0	0	0	507	499	
7	0	0	0	0	502	505	
8	0	0	0	0	496	510	
9	0	0	0	0	493	514	
10	0	0	0	0	499	518	
11	0	0	0	0	508	516	
12	0	0	0	0	508	518	
13	0	0	0	0	500	516	
14	0	0	0	0	501	518	
15	0	0	0	0	500	516	
0	0	0	0	0	503	513	
1	0	0	0	0	504	505	
2	0	0	0	0	507	504	
3	0	0	0	0	513	502	
4	0	0	0	0	515	504	
5	0	0	0	0	513	512	
6	0	0	0	0	509	516	
7	0	0	0	0	510	516	
8	0	0	0	0	509	509	
9	0	0	0	0	505	507	
10	0	0	0	0	512	516	
11	0	0	0	0	513	513	
12	0	0	0	0	515	509	
13	0	0	0	0	520	508	
14	0	0	0	0	527	511	
15	0	0	0	0	532	513	
0	0	0	0	0	532	516	
1	0	0	0	0	527	516	
2	0	0	0	0	519	511	
3	0	0	0	0	512	513	
4	0	0	0	0	505	516	
5	0	0	0	0	496	520	
6	0	0	0	0	479	524	
7	0	0	0	0	476	526	
8	0	0	0	0	484	527	
9	0	0	0	0	492	520	
10	0	0	0	0	496	519	
11	0	0	0	0	505	511	
12	0	0	0	0	515	509	
13	0	0	0	0	519	506	
14	0	0	0	0	522	504	
15	0	0	0	0	526	504	
0	0	0	0	0	525	504	
1	0	0	0	0	530	505	
2	0	0	0	0	526	505	
3	0	0	0	0	517	508	
4	0	0	0	0	515	504	
5	0	0	0	0	516	502	
6	0	0	0	0	513	502	
7	0	0	0	0	506	499	
8	0	0	0	0	509	494	
9	0	0	0	0	509	488	
10	0	0	0	0	505	470	
11	0	0	0	0	510	455	
12	0	0	0	0	514	469	
13	0	0	0	0	519	491	
14	0	0	0	0	519	515	
15	0	0	0	0	515	539	
0	0	0	0	0	512	551	
1	0	0	0	0	513	560	
2	0	0	0	0	508	570	
3	0	0	0	0	500	568	
4	0	0	0	0	494	553	
5	0	0	0	0	497	525	
6	0	0	0	0	503	500	
7	0	0	0	0	511	490	
8	0	0	0	0	518	489	
9	0	0	0	0	526	490	
10	0	0	0	0	517	487	
11	0	0	0	0	512	488	
12	0	0	0	0	503	494	
13	0	0	0	0	499	503	
14	0	0	0	0	495	513	
15	0	0	0	0	493	514	
0	0	0	0	0	494	510	
1	0	0	0	0	496	511	
2	0	0	0	0	499	512	
3	0	0	0	0	508	518	
4	0	0	0	0	518	517	
5	0	0	0	0	521	512	
6	0	0	0	0	519	511	
7	0	0	0	0	524	512	
8	0	0	0	0	524	513	
9	0	0	0	0	526	512	
10	0	0	0	0	521	510	
11	0	0	0	0	516	510	
12	0	0	0	0	514	506	
13	0	0	0	0	508	498	
14	0	0	0	0	508	488	
15	0	0	0	0	504	485	
0	0	0	0	0	502	492	
1	0	0	0	0	508	502	
2	0	0	0	0	515	514	
3	0	0	0	0	523	522	
4	0	0	0	0	524	526	
5	0	0	0	0	530	527	
6	0	0	0	0	529	528	
7	0	0	0	0	519	525	
8	0	0	0	0	510	519	
9	0	0	0	0	503	514	
10	0	0	0	0	500	514	
11	0	0	0	0	496	511	
12	0	0	0	0	486	507	
13	0	0	0	0	487	511	
14	0	0	0	0	497	510	
15	0	0	0	0	502	507	
0	0	0	0	0	504	505	
1	0	0	0	0	509	505	
2	0	0	0	0	507	507	
3	0	0	0	0	504	509	
4	0	0	0	0	504	508	
5	0	0	0	0	509	513	
6	0	0	0	0	511	512	
7	0	0	0	0	514	516	
8	0	0	0	0	515	514	
9	0	0	0	0	513	512	
10	0	0	0	0	518	509	
11	0	0	0	0	520	507	
12	0	0	0	0	521	508	
13	0	0	0	0	519	511	
14	0	0	0	0	521	509	
15	0	0	0	0	516	511	
0	0	0	0	0	512	507	
1	0	0	0	0	510	504	
2	0	0	0	0	510	505	
3	0	0	0	0	511	505	
4	0	0	0	0	513	508	
5	0	0	0	0	514	510	
6	0	0	0	0	517	513	
7	0	0	0	0	518	515	
8	0	0	0	0	511	512	
9	0	0	0	0	507	512	
10	0	0	0	0	506	512	
11	0	0	0	0	499	512	
12	0	0	0	0	503	510	
13	0	0	0	0	504	506	
14	0	0	0	0	503	506	
15	0	0	0	0	501	506	
0	0	0	0	0	515	507	
1	0	0	0	0	527	511	
2	0	0	0	0	530	511	
3	0	0	0	0	521	509	
4	0	0	0	0	516	507	
5	0	0	0	0	515	510	
6	0	0	0	0	512	516	
7	0	0	0	0	503	518	
8	0	0	0	0	494	514	
9	0	0	0	0	493	505	
10	0	0	0	0	490	496	
11	0	0	0	0	499	495	
12	0	0	0	0	503	503	
13	0	0	0	0	509	510	
14	0	0	0	0	512	517	
15	0	0	0	0	510	524	
0	0	0	0	0	503	528	
1	0	0	0	0	500	535	
2	0	0	0	0	496	539	
3	0	0	0	0	499	531	
4	0	0	0	0	509	522	
5	0	0	0	0	511	513	
6	0	0	0	0	505	508	
7	0	0	0	0	515	504	
8	0	0	0	0	525	499	
9	0	0	0	0	529	500	
10	0	0	0	0	526	497	
11	0	0	0	0	526	498	
12	0	0	0	0	526	497	
13	0	0	0	0	520	496	
14	0	0	0	0	513	496	
15	0	0	0	0	507	500	
0	0	0	0	0	507	507	
1	0	0	0	0	507	512	
2	0	0	0	0	505	515	
3	0	0	0	0	501	515	
4	0	0	0	0	510	518	
5	0	0	0	0	516	518	
6	0	0	0	0	520	512	
7	0	0	0	0	524	513	
8	0	0	0	0	521	509	
9	0	0	0	0	515	499	
10	0	0	0	0	507	498	
11	0	0	0	0	505	502	
12	0	0	0	0	497	511	
13	0	0	0	0	500	514	
14	0	0	0	0	516	517	
15	0	0	0	0	514	515	
0	0	0	0	0	505	513	
1	0	0	0	0	501	519	
2	0	0	0	0	504	516	
3	0	0	0	0	502	515	
4	0	0	0	0	501	510	
5	0	0	0	0	500	501	
6	0	0	0	0	500	500	
7	0	0	0	0	504	506	
8	0	0	0	0	508	508	
9	0	0	0	0	515	512	
10	0	0	0	0	522	516	
11	0	0	0	0	527	518	
12	0	0	0	0	528	519	
13	0	0	0	0	521	520	
14	0	0	0	0	515	519	
15	0	0	0	0	512	517	
0	0	0	0	0	512	515	
1	0	0	0	0	509	508	
2	0	0	0	0	511	500	
3	0	0	0	0	520	493	
4	0	0	0	0	526	489	
5	0	0	0	0	525	494	
6	0	0	0	0	524	500	
7	0	0	0	0	515	506	
8	0	0	0	0	504	510	
9	0	0	0	0	488	516	
10	0	0	0	0	481	522	
11	0	0	0	0	482	527	
12	0	0	0	0	492	528	
13	0	0	0	0	492	529	
14	0	0	0	0	493	523	
15	0	0	0	0	507	513	
0	0	0	0	0	514	508	
1	0	0	0	0	517	506	
2	0	0	0	0	514	501	
3	0	0	0	0	513	504	
4	0	0	0	0	509	504	
5	0	0	0	0	510	508	
6	0	0	0	0	513	507	
7	0	0	0	0	517	509	
8	0	0	0	0	518	507	
9	0	0	0	0	522	508	
10	0	0	0	0	524	504	
11	0	0	0	0	519	508	
12	0	0	0	0	515	508	
13	0	0	0	0	514	507	
14	0	0	0	0	512	511	
15	0	0	0	0	518	512	
0	0	0	0	0	520	514	
1	0	0	0	0	516	515	
2	0	0	0	0	510	518	
3	0	0	0	0	507	515	
4	0	0	0	0	508	506	
5	0	0	0	0	505	501	
6	0	0	0	0	508	504	
7	0	0	0	0	508	508	
8	0	0	0	0	505	512	
9	0	0	0	0	505	517	
10	0	0	0	0	507	520	
11	0	0	0	0	511	518	
12	0	0	0	0	514	515	
13	0	0	0	0	515	510	
14	0	0	0	0	523	504	
15	0	0	0	0	524	503	
0	0	0	0	0	524	499	
1	0	0	0	0	524	488	
2	0	0	0	0	512	486	
3	0	0	0	0	504	497	
4	0	0	0	0	498	513	
5	0	0	0	0	493	518	
6	0	0	0	0	495	518	
7	0	0	0	0	499	512	
8	0	0	0	0	504	513	
9	0	0	0	0	504	524	
10	0	0	0	0	505	530	
11	0	0	0	0	506	532	
12	0	0	0	0	509	529	
13	0	0	0	0	516	525	
14	0	0	0	0	519	527	
15	0	0	0	0	516	527	
0	0	0	0	0	513	517	
1	0	0	0	0	511	506	
2	0	0	0	0	512	498	
3	0	0	0	0	512	494	
4	0	0	0	0	509	492	
5	0	0	0	0	508	499	
6	0	0	0	0	505	500	
7	0	0	0	0	502	502	
8	0	0	0	0	505	510	
9	0	0	0	0	510	516	
10	0	0	0	0	517	515	
11	0	0	0	0	519	508	
12	0	0	0	0	524	508	
13	0	0	0	0	534	508	
14	0	0	0	0	541	504	
15	0	0	0	0	535	505	
0	0	0	0	0	519	504	
1	0	0	0	0	505	505	
2	0	0	0	0	495	499	
3	0	0	0	0	485	488	
4	0	0	0	0	482	487	
5	0	0	0	0	482	490	
6	0	0	0	0	483	498	
7	0	0	0	0	489	502	
8	0	0	0	0	496	510	
9	0	0	0	0	505	526	
10	0	0	0	0	518	539	
11	0	0	0	0	520	553	
12	0	0	0	0	527	556	
13	0	0	0	0	534	543	
14	0	0	0	0	534	532	
15	0	0	0	0	530	526	
0	0	0	0	0	525	518	
1	0	0	0	0	524	507	
2	0	0	0	0	531	496	
3	0	0	0	0	532	489	
4	0	0	0	0	523	493	
5	0	0	0	0	511	497	
6	0	0	0	0	493	502	
7	0	0	0	0	487	507	
8	0	0	0	0	478	505	
9	0	0	0	0	471	506	
10	0	0	0	0	474	511	
11	0	0	0	0	479	508	
12	0	0	0	0	484	505	
13	0	0	0	0	500	504	
14	0	0	0	0	515	498	
15	0	0	0	0	524	492	
0	0	0	0	0	528	496	
1	0	0	0	0	529	505	
2	0	0	0	0	527	515	
3	0	0	0	0	534	517	
4	0	0	0	0	538	519	
5	0	0	0	0	534	516	
6	0	0	0	0	525	518	
7	0	0	0	0	515	523	
8	0	0	0	0	505	524	
9	0	0	0	0	502	516	
10	0	0	0	0	501	514	
11	0	0	0	0	510	510	
12	0	0	0	0	516	505	
13	0	0	0	0	511	506	
14	0	0	0	0	510	506	
15	0	0	0	0	508	502	
0	0	0	0	0	498	503	
1	0	0	0	0	488	505	
2	0	0	0	0	489	507	
3	0	0	0	0	489	507	
4	0	0	0	0	492	507	
5	0	0	0	0	497	509	
6	0	0	0	0	512	512	
7	0	0	0	0	519	511	
8	0	0	0	0	521	510	
9	0	0	0	0	528	508	
10	0	0	0	0	533	507	
11	0	0	0	0	529	507	
12	0	0	0	0	524	503	
13	0	0	0	0	519	502	
14	0	0	0	0	514	503	
15	0	0	0	0	517	507	
0	0	0	0	0	519	512	
1	0	0	0	0	513	519	
2	0	0	0	0	503	529	
3	0	0	0	0	498	533	
4	0	0	0	0	510	539	
5	0	0	0	0	508	534	
6	0	0	0	0	504	522	
7	0	0	0	0	501	515	
8	0	0	0	0	495	510	
9	0	0	0	0	499	509	
10	0	0	0	0	504	503	
11	0	0	0	0	508	500	
12	0	0	0	0	510	502	
13	0	0	0	0	516	498	
14	0	0	0	0	521	495	
15	0	0	0	0	523	493	
0	0	0	0	0	522	496	
1	0	0	0	0	523	499	
2	0	0	0	0	512	504	
3	0	0	0	0	504	510	
4	0	0	0	0	503	515	
5	0	0	0	0	500	517	
6	0	0	0	0	501	524	
7	0	0	0	0	505	526	
8	0	0	0	0	510	512	
9	0	0	0	0	512	504	
10	0	0	0	0	509	499	
11	0	0	0	0	518	497	
12	0	0	0	0	527	495	
13	0	0	0	0	527	500	
14	0	0	0	0	526	513	
15	0	0	0	0	519	524	
0	0	0	0	0	518	532	
1	0	0	0	0	518	540	
2	0	0	0	0	506	540	
3	0	0	0	0	496	529	
4	0	0	0	0	494	509	
5	0	0	0	0	496	505	
6	0	0	0	0	497	504	
7	0	0	0	0	500	502	
8	0	0	0	0	503	504	
9	0	0	0	0	508	505	
10	0	0	0	0	507	507	
11	0	0	0	0	507	512	
12	0	0	0	0	508	515	
13	0	0	0	0	505	504	
14	0	0	0	0	508	488	
15	0	0	0	0	518	494	
0	0	0	0	0	521	502	
1	0	0	0	0	520	515	
2	0	0	0	0	515	528	
3	0	0	0	0	512	530	
4	0	0	0	0	511	524	
5	0	0	0	0	507	521	
6	0	0	0	0	503	521	
7	0	0	0	0	507	516	
8	0	0	0	0	515	512	
9	0	0	0	0	507	501	
10	0	0	0	0	503	499	
11	0	0	0	0	504	500	
12	0	0	0	0	515	504	
13	0	0	0	0	514	504	
14	0	0	0	0	516	501	
15	0	0	0	0	515	503	
0	0	0	0	0	518	505	
1	0	0	0	0	516	507	
2	0	0	0	0	517	510	
3	0	0	0	0	510	511	
4	0	0	0	0	505	517	
5	0	0	0	0	502	518	
6	0	0	0	0	505	510	
7	0	0	0	0	512	508	
8	0	0	0	0	516	508	
9	0	0	0	0	513	506	
10	0	0	0	0	511	508	
11	0	0	0	0	510	500	
12	0	0	0	0	509	499	
13	0	0	0	0	511	505	
14	0	0	0	0	513	512	
15	0	0	0	0	512	517	
0	0	0	0	0	517	517	
1	0	0	0	0	521	514	
2	0	0	0	0	519	515	
3	0	0	0	0	515	518	
4	0	0	0	0	510	513	
5	0	0	0	0	512	508	
6	0	0	0	0	516	502	
7	0	0	0	0	518	506	
8	0	0	0	0	517	505	
9	0	0	0	0	508	506	
10	0	0	0	0	497	500	
11	0	0	0	0	492	493	
12	0	0	0	0	492	495	
13	0	0	0	0	487	503	
14	0	0	0	0	493	509	
15	0	0	0	0	496	517	
0	0	0	0	0	507	515	
1	0	0	0	0	527	515	
2	0	0	0	0	530	519	
3	0	0	0	0	529	528	
4	0	0	0	0	515	534	
5	0	0	0	0	503	530	
6	0	0	0	0	498	523	
7	0	0	0	0	501	520	
8	0	0	0	0	502	523	
9	0	0	0	0	503	524	
10	0	0	0	0	505	518	
11	0	0	0	0	513	510	
12	0	0	0	0	519	504	
13	0	0	0	0	527	502	
14	0	0	0	0	526	501	
15	0	0	0	0	517	499	
0	0	0	0	0	508	502	
1	0	0	0	0	504	501	
2	0	0	0	0	507	504	
3	0	0	0	0	510	503	
4	0	0	0	0	512	502	
5	0	0	0	0	515	502	
6	0	0	0	0	521	499	
7	0	0	0	0	519	496	
8	0	0	0	0	526	496	
9	0	0	0	0	529	500	
10	0	0	0	0	522	503	
11	0	0	0	0	511	511	
12	0	0	0	0	507	519	
13	0	0	0	0	504	515	
14	0	0	0	0	504	516	
15	0	0	0	0	502	521	
0	0	0	0	0	504	520	
1	0	0	0	0	507	519	
2	0	0	0	0	507	518	
3	0	0	0	0	504	522	
4	0	0	0	0	502	524	
5	0	0	0	0	499	526	
6	0	0	0	0	499	526	
7	0	0	0	0	504	519	
8	0	0	0	0	506	510	
9	0	0	0	0	508	505	
10	0	0	0	0	512	503	
11	0	0	0	0	523	502	
12	0	0	0	0	527	502	
13	0	0	0	0	522	504	
14	0	0	0	0	517	504	
15	0	0	0	0	508	504	
0	0	0	0	0	508	501	
1	0	0	0	0	505	504	
2	0	0	0	0	504	504	
3	0	0	0	0	504	510	
4	0	0	0	0	499	511	
5	0	0	0	0	502	511	
6	0	0	0	0	513	515	
7	0	0	0	0	516	516	
8	0	0	0	0	525	518	
9	0	0	0	0	525	517	
10	0	0	0	0	513	514	
11	0	0	0	0	517	511	
12	0	0	0	0	513	505	
13	0	0	0	0	516	505	
14	0	0	0	0	519	505	
15	0	0	0	0	515	510	
0	0	0	0	0	521	510	
1	0	0	0	0	521	509	
2	0	0	0	0	515	509	
3	0	0	0	0	510	506	
4	0	0	0	0	502	503	
5	0	0	0	0	492	501	
6	0	0	0	0	483	506	
7	0	0	0	0	487	509	
8	0	0	0	0	491	505	
9	0	0	0	0	494	504	
10	0	0	0	0	492	512	
11	0	0	0	0	498	524	
12	0	0	0	0	524	526	
13	0	0	0	0	527	526	
14	0	0	0	0	531	521	
15	0	0	0	0	521	515	
0	0	0	0	0	516	505	
1	0	0	0	0	506	505	
2	0	0	0	0	499	505	
3	0	0	0	0	495	507	
4	0	0	0	0	499	509	
5	0	0	0	0	515	509	
6	0	0	0	0	520	510	
7	0	0	0	0	515	510	
8	0	0	0	0	520	514	
9	0	0	0	0	524	519	
10	0	0	0	0	524	517	
11	0	0	0	0	518	516	
12	0	0	0	0	517	515	
13	0	0	0	0	519	515	
14	0	0	0	0	522	510	
15	0	0	0	0	526	510	
0	0	0	0	0	518	509	
1	0	0	0	0	508	507	
2	0	0	0	0	505	506	
3	0	0	0	0	504	504	
4	0	0	0	0	496	503	
5	0	0	0	0	492	501	
6	0	0	0	0	491	500	
7	0	0	0	0	494	498	
8	0	0	0	0	495	501	
9	0	0	0	0	503	507	
10	0	0	0	0	514	510	
11	0	0	0	0	524	514	
12	0	0	0	0	527	515	
13	0	0	0	0	525	513	
14	0	0	0	0	520	513	
15	0	0	0	0	515	515	
0	0	0	0	0	511	516	
1	0	0	0	0	509	515	
2	0	0	0	0	507	514	
3	0	0	0	0	500	517	
4	0	0	0	0	504	518	
5	0	0	0	0	514	518	
6	0	0	0	0	519	517	
7	0	0	0	0	509	515	
8	0	0	0	0	507	512	
9	0	0	0	0	508	509	
10	0	0	0	0	513	505	
11	0	0	0	0	513	503	
12	0	0	0	0	514	501	
13	0	0	0	0	515	502	
14	0	0	0	0	516	504	
15	0	0	0	0	519	507	
0	0	0	0	0	519	506	
1	0	0	0	0	512	509	
2	0	0	0	0	504	509	
3	0	0	0	0	499	503	
4	0	0	0	0	503	494	
5	0	0	0	0	497	493	
6	0	0	0	0	495	499	
7	0	0	0	0	499	505	
8	0	0	0	0	502	517	
9	0	0	0	0	499	521	
10	0	0	0	0	505	526	
11	0	0	0	0	511	526	
12	0	0	0	0	513	528	
13	0	0	0	0	514	525	
14	0	0	0	0	516	515	
15	0	0	0	0	519	497	
0	0	0	0	0	519	490	
1	0	0	0	0	523	494	
2	0	0	0	0	532	505	
3	0	0	0	0	535	517	
4	0	0	0	0	528	526	
5	0	0	0	0	519	529	
6	0	0	0	0	507	532	
7	0	0	0	0	508	527	
8	0	0	0	0	516	516	
9	0	0	0	0	520	510	
10	0	0	0	0	517	510	
11	0	0	0	0	504	510	
12	0	0	0	0	493	510	
13	0	0	0	0	489	510	
14	0	0	0	0	482	510	
15	0	0	0	0	483	514	
0	0	0	0	0	485	508	
1	0	0	0	0	492	504	
2	0	0	0	0	491	503	
3	0	0	0	0	501	499	
4	0	0	0	0	512	501	
5	0	0	0	0	521	503	
6	0	0	0	0	523	495	
7	0	0	0	0	523	498	
8	0	0	0	0	515	497	
9	0	0	0	0	511	503	
10	0	0	0	0	512	510	
11	0	0	0	0	516	515	
12	0	0	0	0	520	522	
13	0	0	0	0	519	527	
14	0	0	0	0	523	527	
15	0	0	0	0	533	530	
0	0	0	0	0	536	526	
1	0	0	0	0	530	518	
2	0	0	0	0	529	508	
3	0	0	0	0	524	497	
4	0	0	0	0	512	491	
5	0	0	0	0	503	481	
6	0	0	0	0	500	479	
7	0	0	0	0	500	488	
8	0	0	0	0	505	503	
9	0	0	0	0	495	519	
10	0	0	0	0	489	530	
11	0	0	0	0	483	536	
12	0	0	0	0	480	540	
13	0	0	0	0	492	540	
14	0	0	0	0	497	531	
15	0	0	0	0	508	516	
0	0	0	0	0	521	506	
1	0	0	0	0	523	500	
2	0	0	0	0	526	501	
3	0	0	0	0	524	502	
4	0	0	0	0	525	501	
5	0	0	0	0	521	505	
6	0	0	0	0	516	505	
7	0	0	0	0	511	501	
8	0	0	0	0	509	502	
9	0	0	0	0	506	507	
10	0	0	0	0	502	505	
11	0	0	0	0	504	501	
12	0	0	0	0	511	499	
13	0	0	0	0	514	501	
14	0	0	0	0	520	510	
15	0	0	0	0	523	514	
0	0	0	0	0	527	521	
1	0	0	0	0	522	518	
2	0	0	0	0	515	516	
3	0	0	0	0	506	517	
4	0	0	0	0	499	522	
5	0	0	0	0	499	523	
6	0	0	0	0	500	518	
7	0	0	0	0	503	510	
8	0	0	0	0	507	508	
9	0	0	0	0	508	505	
10	0	0	0	0	510	502	
11	0	0	0	0	512	487	
12	0	0	0	0	520	477	
13	0	0	0	0	523	482	
14	0	0	0	0	511	493	
15	0	0	0	0	502	508	
0	0	0	0	0	497	524	
1	0	0	0	0	504	534	
2	0	0	0	0	512	541	
3	0	0	0	0	511	547	
4	0	0	0	0	509	553	
5	0	0	0	0	513	548	
6	0	0	0	0	514	529	
7	0	0	0	0	513	513	
8	0	0	0	0	513	503	
9	0	0	0	0	503	496	
10	0	0	0	0	500	497	
11	0	0	0	0	507	497	
12	0	0	0	0	513	502	
13	0	0	0	0	512	505	
14	0	0	0	0	515	509	
15	0	0	0	0	521	509	
0	0	0	0	0	523	510	
1	0	0	0	0	515	511	
2	0	0	0	0	511	506	
3	0	0	0	0	508	506	
4	0	0	0	0	509	505	
5	0	0	0	0	506	504	
6	0	0	0	0	512	508	
7	0	0	0	0	515	511	
8	0	0	0	0	522	512	
9	0	0	0	0	519	510	
10	0	0	0	0	512	512	
11	0	0	0	0	510	513	
12	0	0	0	0	503	515	
13	0	0	0	0	504	514	
14	0	0	0	0	504	513	
15	0	0	0	0	498	511	
0	0	0	0	0	501	507	
1	0	0	0	0	511	506	
2	0	0	0	0	522	505	
3	0	0	0	0	526	500	
4	0	0	0	0	520	499	
5	0	0	0	0	515	499	
6	0	0	0	0	508	497	
7	0	0	0	0	503	500	
8	0	0	0	0	498	501	
9	0	0	0	0	488	503	
10	0	0	0	0	494	508	
11	0	0	0	0	492	513	
12	0	0	0	0	498	515	
13	0	0	0	0	509	516	
14	0	0	0	0	514	515	
15	0	0	0	0	523	515	
0	0	0	0	0	526	512	
1	0	0	0	0	528	513	
2	0	0	0	0	526	510	
3	0	0	0	0	519	504	
4	0	0	0	0	515	500	
5	0	0	0	0	508	503	
6	0	0	0	0	507	504	
7	0	0	0	0	501	509	
8	0	0	0	0	492	516	
9	0	0	0	0	491	522	
10	0	0	0	0	494	521	
11	0	0	0	0	508	523	
12	0	0	0	0	511	525	
13	0	0	0	0	512	522	
14	0	0	0	0	519	516	
15	0	0	0	0	518	507	
0	0	0	0	0	514	501	
1	0	0	0	0	517	500	
2	0	0	0	0	521	502	
3	0	0	0	0	517	503	
4	0	0	0	0	515	508	
5	0	0	0	0	516	515	
6	0	0	0	0	512	515	
7	0	0	0	0	509	511	
8	0	0	0	0	514	511	
9	0	0	0	0	520	510	
10	0	0	0	0	530	509	
11	0	0	0	0	534	509	
12	0	0	0	0	525	512	
13	0	0	0	0	511	515	
14	0	0	0	0	497	514	
15	0	0	0	0	495	521	
0	0	0	0	0	498	520	
1	0	0	0	0	500	516	
2	0	0	0	0	502	508	
3	0	0	0	0	502	495	
4	0	0	0	0	503	492	
5	0	0	0	0	503	496	
6	0	0	0	0	497	499	
7	0	0	0	0	496	508	
8	0	0	0	0	496	512	
9	0	0	0	0	499	518	
10	0	0	0	0	511	523	
11	0	0	0	0	517	529	
12	0	0	0	0	524	534	
13	0	0	0	0	523	522	
14	0	0	0	0	522	512	
15	0	0	0	0	521	505	
0	0	0	0	0	519	507	
1	0	0	0	0	516	505	
2	0	0	0	0	516	505	
3	0	0	0	0	516	505	
4	0	0	0	0	516	505	
5	0	0	0	0	518	505	
6	0	0	0	0	515	511	
7	0	0	0	0	512	513	
8	0	0	0	0	511	514	
9	0	0	0	0	508	514	
10	0	0	0	0	504	511	
11	0	0	0	0	501	506	
12	0	0	0	0	498	507	
13	0	0	0	0	501	508	
14	0	0	0	0	505	507	
15	0	0	0	0	510	510	
0	0	0	0	0	514	511	
1	0	0	0	0	512	510	
2	0	0	0	0	505	508	
3	0	0	0	0	503	504	
4	0	0	0	0	502	502	
5	0	0	0	0	509	499	
6	0	0	0	0	514	494	
7	0	0	0	0	519	493	
8	0	0	0	0	523	490	
9	0	0	0	0	519	491	
10	0	0	0	0	513	486	
11	0	0	0	0	510	495	
12	0	0	0	0	503	514	
13	0	0	0	0	495	531	
14	0	0	0	0	493	540	
15	0	0	0	0	500	547	
0	0	0	0	0	503	549	
1	0	0	0	0	514	551	
2	0	0	0	0	519	547	
3	0	0	0	0	519	538	
4	0	0	0	0	516	517	
5	0	0	0	0	519	508	
6	0	0	0	0	515	504	
7	0	0	0	0	508	503	
8	0	0	0	0	506	495	
9	0	0	0	0	504	496	
10	0	0	0	0	505	500	
11	0	0	0	0	516	505	
12	0	0	0	0	517	503	
13	0	0	0	0	511	504	
14	0	0	0	0	514	498	
15	0	0	0	0	514	501	
0	0	0	0	0	515	503	
1	0	0	0	0	516	504	
2	0	0	0	0	515	505	
3	0	0	0	0	510	504	
4	0	0	0	0	510	506	
5	0	0	0	0	511	509	
6	0	0	0	0	512	505	
7	0	0	0	0	505	499	
8	0	0	0	0	502	497	
9	0	0	0	0	498	503	
10	0	0	0	0	500	512	
11	0	0	0	0	505	521	
12	0	0	0	0	513	526	
13	0	0	0	0	516	525	
14	0	0	0	0	514	526	
15	0	0	0	0	508	526	
0	0	0	0	0	506	522	
1	0	0	0	0	506	514	
2	0	0	0	0	508	508	
3	0	0	0	0	517	505	
4	0	0	0	0	520	497	
5	0	0	0	0	518	496	
6	0	0	0	0	513	495	
7	0	0	0	0	509	502	
8	0	0	0	0	508	507	
9	0	0	0	0	505	512	
10	0	0	0	0	506	518	
11	0	0	0	0	511	524	
12	0	0	0	0	510	526	
13	0	0	0	0	510	525	
14	0	0	0	0	518	526	
15	0	0	0	0	520	518	
0	0	0	0	0	519	513	
1	0	0	0	0	524	508	
2	0	0	0	0	525	507	
3	0	0	0	0	519	503	
4	0	0	0	0	515	502	
5	0	0	0	0	510	501	
6	0	0	0	0	511	503	
7	0	0	0	0	505	502	
8	0	0	0	0	499	504	
9	0	0	0	0	498	498	
10	0	0	0	0	497	496	
11	0	0	0	0	503	499	
12	0	0	0	0	507	503	
13	0	0	0	0	511	505	
14	0	0	0	0	507	511	
15	0	0	0	0	504	511	
0	0	0	0	0	508	515	
1	0	0	0	0	511	519	
2	0	0	0	0	513	523	
3	0	0	0	0	517	521	
4	0	0	0	0	512	512	
5	0	0	0	0	507	511	
6	0	0	0	0	507	507	
7	0	0	0	0	504	510	
8	0	0	0	0	505	511	
9	0	0	0	0	505	515	
10	0	0	0	0	508	512	
11	0	0	0	0	505	512	
12	0	0	0	0	508	515	
13	0	0	0	0	521	515	
14	0	0	0	0	536	516	
15	0	0	0	0	538	514	
0	0	0	0	0	529	509	
1	0	0	0	0	513	507	
2	0	0	0	0	501	509	
3	0	0	0	0	491	504	
4	0	0	0	0	491	496	
5	0	0	0	0	490	479	
6	0	0	0	0	493	465	
7	0	0	0	0	504	472	
8	0	0	0	0	513	481	
9	0	0	0	0	519	504	
10	0	0	0	0	524	523	
11	0	0	0	0	515	539	
12	0	0	0	0	508	552	
13	0	0	0	0	503	563	
14	0	0	0	0	503	567	
15	0	0	0	0	512	556	
0	0	0	0	0	515	542	
1	0	0	0	0	516	524	
2	0	0	0	0	517	509	
3	0	0	0	0	519	502	
4	0	0	0	0	519	492	
5	0	0	0	0	517	486	
6	0	0	0	0	519	488	
7	0	0	0	0	521	494	
8	0	0	0	0	521	500	
9	0	0	0	0	517	505	
10	0	0	0	0	521	512	
11	0	0	0	0	519	516	
12	0	0	0	0	517	515	
13	0	0	0	0	511	513	
14	0	0	0	0	502	513	
15	0	0	0	0	499	506	
0	0	0	0	0	490	500	
1	0	0	0	0	484	494	
2	0	0	0	0	491	495	
3	0	0	0	0	502	496	
4	0	0	0	0	506	499	
5	0	0	0	0	510	504	
6	0	0	0	0	512	506	
7	0	0	0	0	515	509	
8	0	0	0	0	527	518	
9	0	0	0	0	535	521	
10	0	0	0	0	532	519	
11	0	0	0	0	519	514	
12	0	0	0	0	504	511	
13	0	0	0	0	498	515	
14	0	0	0	0	498	514	
15	0	0	0	0	500	510	
0	0	0	0	0	496	504	
1	0	0	0	0	487	502	
2	0	0	0	0	493	504	
3	0	0	0	0	504	508	
4	0	0	0	0	515	513	
5	0	0	0	0	519	513	
6	0	0	0	0	523	516	
7	0	0	0	0	534	519	
8	0	0	0	0	532	517	
9	0	0	0	0	523	515	
10	0	0	0	0	517	509	
11	0	0	0	0	516	510	
12	0	0	0	0	515	510	
13	0	0	0	0	505	504	
14	0	0	0	0	492	502	
15	0	0	0	0	483	503	
0	0	0	0	0	484	504	
1	0	0	0	0	495	508	
2	0	0	0	0	505	514	
3	0	0	0	0	509	514	
4	0	0	0	0	514	514	
5	0	0	0	0	522	512	
6	0	0	0	0	527	512	
7	0	0	0	0	523	514	
8	0	0	0	0	519	520	
9	0	0	0	0	520	520	
10	0	0	0	0	521	519	
11	0	0	0	0	519	518	
12	0	0	0	0	519	517	
13	0	0	0	0	518	519	
14	0	0	0	0	511	517	
15	0	0	0	0	508	511	
0	0	0	0	0	509	506	
1	0	0	0	0	513	504	
2	0	0	0	0	516	503	
3	0	0	0	0	515	498	
4	0	0	0	0	515	496	
5	0	0	0	0	503	497	
6	0	0	0	0	501	495	
7	0	0	0	0	500	499	
8	0	0	0	0	497	506	
9	0	0	0	0	507	515	
10	0	0	0	0	513	518	
11	0	0	0	0	518	522	
12	0	0	0	0	512	520	
13	0	0	0	0	507	521	
14	0	0	0	0	514	520	
15	0	0	0	0	508	511	
0	0	0	0	0	506	503	
1	0	0	0	0	507	505	
2	0	0	0	0	505	504	
3	0	0	0	0	505	503	
4	0	0	0	0	508	506	
5	0	0	0	0	509	511	
6	0	0	0	0	510	511	
7	0	0	0	0	507	508	
8	0	0	0	0	518	506	
9	0	0	0	0	518	510	
10	0	0	0	0	518	508	
11	0	0	0	0	514	511	
12	0	0	0	0	523	514	
13	0	0	0	0	525	519	
14	0	0	0	0	523	508	
15	0	0	0	0	518	498	
0	0	0	0	0	518	493	
1	0	0	0	0	510	499	
2	0	0	0	0	507	508	
3	0	0	0	0	499	516	
4	0	0	0	0	500	526	
5	0	0	0	0	496	532	
6	0	0	0	0	489	536	
7	0	0	0	0	489	539	
8	0	0	0	0	493	534	
9	0	0	0	0	500	520	
10	0	0	0	0	512	509	
11	0	0	0	0	516	501	
12	0	0	0	0	513	499	
13	0	0	0	0	504	498	
14	0	0	0	0	510	498	
15	0	0	0	0	513	500	
0	0	0	0	0	515	504	
1	0	0	0	0	512	507	
2	0	0	0	0	514	508	
3	0	0	0	0	514	511	
4	0	0	0	0	518	518	
5	0	0	0	0	519	516	
6	0	0	0	0	532	516	
7	0	0	0	0	545	513	
8	0	0	0	0	546	509	
9	0	0	0	0	542	505	
10	0	0	0	0	527	498	
11	0	0	0	0	511	489	
12	0	0	0	0	494	490	
13	0	0	0	0	486	497	
14	0	0	0	0	481	508	
15	0	0	0	0	480	516	
0	0	0	0	0	483	527	
1	0	0	0	0	483	524	
2	0	0	0	0	484	519	
3	0	0	0	0	495	521	
4	0	0	0	0	499	515	
5	0	0	0	0	504	516	
6	0	0	0	0	499	510	
7	0	0	0	0	499	511	
8	0	0	0	0	505	512	
9	0	0	0	0	519	513	
10	0	0	0	0	529	516	
11	0	0	0	0	533	516	
12	0	0	0	0	531	514	
13	0	0	0	0	529	512	
14	0	0	0	0	527	509	
15	0	0	0	0	530	504	
0	0	0	0	0	532	503	
1	0	0	0	0	528	505	
2	0	0	0	0	520	505	
3	0	0	0	0	508	504	
4	0	0	0	0	504	505	
5	0	0	0	0	503	505	
6	0	0	0	0	503	505	
7	0	0	0	0	505	501	
8	0	0	0	0	509	497	
9	0	0	0	0	502	494	
10	0	0	0	0	504	500	
11	0	0	0	0	505	507	
12	0	0	0	0	504	515	
13	0	0	0	0	504	519	
14	0	0	0	0	505	516	
15	0	0	0	0	513	511	
0	0	0	0	0	511	499	
1	0	0	0	0	518	498	
2	0	0	0	0	522	505	
3	0	0	0	0	528	513	
4	0	0	0	0	529	521	
5	0	0	0	0	518	527	
6	0	0	0	0	505	530	
7	0	0	0	0	495	539	
8	0	0	0	0	497	547	
9	0	0	0	0	504	540	
10	0	0	0	0	501	522	
11	0	0	0	0	494	516	
12	0	0	0	0	494	510	
13	0	0	0	0	503	505	
14	0	0	0	0	509	499	
15	0	0	0	0	516	499	
0	0	0	0	0	521	499	
1	0	0	0	0	513	491	
2	0	0	0	0	511	487	
3	0	0	0	0	503	483	
4	0	0	0	0	496	486	
5	0	0	0	0	501	494	
6	0	0	0	0	504	499	
7	0	0	0	0	504	508	
8	0	0	0	0	509	516	
9	0	0	0	0	515	523	
10	0	0	0	0	520	529	
11	0	0	0	0	521	531	
12	0	0	0	0	523	535	
13	0	0	0	0	518	531	
14	0	0	0	0	515	524	
15	0	0	0	0	514	513	
0	0	0	0	0	516	504	
1	0	0	0	0	518	500	
2	0	0	0	0	524	499	
3	0	0	0	0	523	496	
4	0	0	0	0	524	501	
5	0	0	0	0	519	503	
6	0	0	0	0	512	508	
7	0	0	0	0	505	508	
8	0	0	0	0	502	510	
9	0	0	0	0	503	515	
10	0	0	0	0	501	513	
11	0	0	0	0	496	513	
12	0	0	0	0	495	511	
13	0	0	0	0	504	510	
14	0	0	0	0	510	508	
15	0	0	0	0	511	502	
0	0	0	0	0	512	501	
1	0	0	0	0	511	505	
2	0	0	0	0	512	507	
3	0	0	0	0	516	510	
4	0	0	0	0	512	505	
5	0	0	0	0	514	507	
6	0	0	0	0	512	511	
7	0	0	0	0	515	516	
8	0	0	0	0	518	517	
9	0	0	0	0	515	515	
10	0	0	0	0	522	513	
11	0	0	0	0	521	516	
12	0	0	0	0	516	518	
13	0	0	0	0	514	516	
14	0	0	0	0	520	512	
15	0	0	0	0	524	512	
0	0	0	0	0	517	510	
1	0	0	0	0	513	508	
2	0	0	0	0	505	502	
3	0	0	0	0	496	504	
4	0	0	0	0	494	505	
5	0	0	0	0	487	506	
6	0	0	0	0	480	509	
7	0	0	0	0	484	512	
8	0	0	0	0	485	516	
9	0	0	0	0	489	515	
10	0	0	0	0	507	513	
11	0	0	0	0	524	513	
12	0	0	0	0	534	515	
13	0	0	0	0	536	515	
14	0	0	0	0	529	512	
15	0	0	0	0	522	499	
0	0	0	0	0	514	492	
1	0	0	0	0	515	495	
2	0	0	0	0	515	504	
3	0	0	0	0	515	513	
4	0	0	0	0	516	519	
5	0	0	0	0	511	523	
6	0	0	0	0	511	527	
7	0	0	0	0	513	532	
8	0	0	0	0	505	533	
9	0	0	0	0	500	528	
10	0	0	0	0	499	516	
11	0	0	0	0	499	510	
12	0	0	0	0	498	506	
13	0	0	0	0	502	502	
14	0	0	0	0	506	497	
15	0	0	0	0	507	497	
0	0	0	0	0	507	496	
1	0	0	0	0	502	500	
2	0	0	0	0	500	504	
3	0	0	0	0	508	510	
4	0	0	0	0	518	512	
5	0	0	0	0	526	515	
6	0	0	0	0	528	514	
7	0	0	0	0	524	512	
8	0	0	0	0	519	510	
9	0	0	0	0	518	507	
10	0	0	0	0	515	505	
11	0	0	0	0	512	505	
12	0	0	0	0	505	508	
13	0	0	0	0	496	509	
14	0	0	0	0	501	510	
15	0	0	0	0	505	513	
0	0	0	0	0	513	507	
1	0	0	0	0	515	496	
2	0	0	0	0	517	483	
3	0	0	0	0	520	484	
4	0	0	0	0	523	495	
5	0	0	0	0	521	509	
6	0	0	0	0	516	519	
7	0	0	0	0	511	529	
8	0	0	0	0	508	533	
9	0	0	0	0	504	523	
10	0	0	0	0	500	515	
11	0	0	0	0	508	519	
12	0	0	0	0	511	526	
13	0	0	0	0	517	531	
14	0	0	0	0	514	533	
15	0	0	0	0	508	528	
0	0	0	0	0	505	521	
1	0	0	0	0	501	521	
2	0	0	0	0	505	525	
3	0	0	0	0	508	519	
4	0	0	0	0	507	511	
5	0	0	0	0	505	503	
6	0	0	0	0	506	499	
7	0	0	0	0	507	502	
8	0	0	0	0	512	502	
9	0	0	0	0	511	503	
10	0	0	0	0	514	504	
11	0	0	0	0	512	500	
12	0	0	0	0	517	499	
13	0	0	0	0	518	497	
14	0	0	0	0	517	496	
15	0	0	0	0	516	500	
0	0	0	0	0	514	499	
1	0	0	0	0	514	499	
2	0	0	0	0	513	502	
3	0	0	0	0	510	506	
4	0	0	0	0	509	513	
5	0	0	0	0	508	508	
6	0	0	0	0	510	510	
7	0	0	0	0	512	512	
8	0	0	0	0	506	513	
9	0	0	0	0	507	517	
10	0	0	0	0	509	519	
11	0	0	0	0	509	519	
12	0	0	0	0	511	516	
13	0	0	0	0	509	513	
14	0	0	0	0	504	505	
15	0	0	0	0	505	500	
0	0	0	0	0	510	498	
1	0	0	0	0	511	504	
2	0	0	0	0	512	510	
3	0	0	0	0	514	516	
4	0	0	0	0	511	517	
5	0	0	0	0	511	513	
6	0	0	0	0	512	513	
7	0	0	0	0	512	519	
8	0	0	0	0	511	519	
9	0	0	0	0	509	510	
10	0	0	0	0	511	503	
11	0	0	0	0	512	499	
12	0	0	0	0	508	498	
13	0	0	0	0	513	505	
14	0	0	0	0	511	514	
15	0	0	0	0	508	524	
0	0	0	0	0	510	529	
1	0	0	0	0	511	523	
2	0	0	0	0	511	518	
3	0	0	0	0	512	513	
4	0	0	0	0	512	504	
5	0	0	0	0	510	495	
6	0	0	0	0	509	483	
7	0	0	0	0	509	489	
8	0	0	0	0	508	499	
9	0	0	0	0	510	510	
10	0	0	0	0	516	519	
11	0	0	0	0	520	527	
12	0	0	0	0	523	534	
13	0	0	0	0	517	540	
14	0	0	0	0	515	537	
15	0	0	0	0	523	529	
0	0	0	0	0	519	515	
1	0	0	0	0	506	507	
2	0	0	0	0	495	508	
3	0	0	0	0	500	507	
4	0	0	0	0	505	504	
5	0	0	0	0	504	507	
6	0	0	0	0	500	508	
7	0	0	0	0	498	506	
8	0	0	0	0	492	496	
9	0	0	0	0	494	496	
10	0	0	0	0	502	496	
11	0	0	0	0	502	494	
12	0	0	0	0	499	499	
13	0	0	0	0	497	491	
14	0	0	0	0	500	493	
15	0	0	0	0	511	504	
0	0	0	0	0	517	519	
1	0	0	0	0	517	526	
2	0	0	0	0	523	524	
3	0	0	0	0	527	528	
4	0	0	0	0	522	534	
5	0	0	0	0	521	536	
6	0	0	0	0	524	534	
7	0	0	0	0	521	523	
8	0	0	0	0	521	507	
9	0	0	0	0	529	503	
10	0	0	0	0	525	498	
11	0	0	0	0	520	496	
12	0	0	0	0	515	491	
13	0	0	0	0	515	489	
14	0	0	0	0	507	493	
15	0	0	0	0	504	500	
0	0	0	0	0	499	503	
1	0	0	0	0	492	506	
2	0	0	0	0	488	508	
3	0	0	0	0	500	513	
4	0	0	0	0	500	511	
5	0	0	0	0	493	515	
6	0	0	0	0	494	520	
7	0	0	0	0	502	524	
8	0	0	0	0	511	526	
9	0	0	0	0	520	526	
10	0	0	0	0	525	523	
11	0	0	0	0	526	515	
12	0	0	0	0	523	513	
13	0	0	0	0	517	515	
14	0	0	0	0	519	515	
15	0	0	0	0	514	509	
0	0	0	0	0	510	504	
1	0	0	0	0	510	504	
2	0	0	0	0	504	504	
3	0	0	0	0	504	508	
4	0	0	0	0	509	504	
5	0	0	0	0	506	501	
6	0	0	0	0	514	498	
7	0	0	0	0	521	495	
8	0	0	0	0	523	493	
9	0	0	0	0	516	495	
10	0	0	0	0	511	502	
11	0	0	0	0	507	507	
12	0	0	0	0	505	512	
13	0	0	0	0	504	521	
14	0	0	0	0	504	517	
15	0	0	0	0	507	516	
0	0	0	0	0	517	520	
1	0	0	0	0	520	511	
2	0	0	0	0	515	494	
3	0	0	0	0	507	483	
4	0	0	0	0	501	491	
5	0	0	0	0	509	511	
6	0	0	0	0	512	531	
7	0	0	0	0	517	537	
8	0	0	0	0	523	536	
9	0	0	0	0	524	538	
10	0	0	0	0	525	545	
11	0	0	0	0	519	550	
12	0	0	0	0	518	541	
13	0	0	0	0	510	525	
14	0	0	0	0	506	509	
15	0	0	0	0	496	499	
0	0	0	0	0	487	491	
1	0	0	0	0	476	489	
2	0	0	0	0	473	494	
3	0	0	0	0	489	497	
4	0	0	0	0	505	500	
5	0	0	0	0	513	507	
6	0	0	0	0	520	514	
7	0	0	0	0	529	513	
8	0	0	0	0	527	517	
9	0	0	0	0	528	511	
10	0	0	0	0	524	505	
11	0	0	0	0	526	509	
12	0	0	0	0	519	515	
13	0	0	0	0	511	513	
14	0	0	0	0	511	509	
15	0	0	0	0	502	499	
0	0	0	0	0	497	495	
1	0	0	0	0	487	496	
2	0	0	0	0	486	501	
3	0	0	0	0	495	506	
4	0	0	0	0	501	507	
5	0	0	0	0	511	506	
6	0	0	0	0	516	510	
7	0	0	0	0	521	510	
8	0	0	0	0	529	502	
9	0	0	0	0	528	496	
10	0	0	0	0	525	495	
11	0	0	0	0	523	497	
12	0	0	0	0	530	498	
13	0	0	0	0	529	500	
14	0	0	0	0	523	506	
15	0	0	0	0	523	508	
0	0	0	0	0	520	510	
1	0	0	0	0	512	511	
2	0	0	0	0	494	517	
3	0	0	0	0	485	523	
4	0	0	0	0	480	527	
5	0	0	0	0	479	523	
6	0	0	0	0	481	506	
7	0	0	0	0	501	488	
8	0	0	0	0	513	476	
9	0	0	0	0	515	480	
10	0	0	0	0	515	496	
11	0	0	0	0	518	518	
12	0	0	0	0	519	540	
13	0	0	0	0	521	555	
14	0	0	0	0	519	568	
15	0	0	0	0	515	575	
0	0	0	0	0	519	563	
1	0	0	0	0	517	548	
2	0	0	0	0	513	531	
3	0	0	0	0	516	510	
4	0	0	0	0	526	495	
5	0	0	0	0	525	489	
6	0	0	0	0	512	487	
7	0	0	0	0	494	490	
8	0	0	0	0	486	495	
9	0	0	0	0	486	483	
10	0	0	0	0	489	477	
11	0	0	0	0	493	479	
12	0	0	0	0	492	484	
13	0	0	0	0	488	488	
14	0	0	0	0	497	496	
15	0	0	0	0	520	508	
0	0	0	0	0	531	522	
1	0	0	0	0	532	529	
2	0	0	0	0	526	539	
3	0	0	0	0	517	541	
4	0	0	0	0	514	543	
5	0	0	0	0	511	536	
6	0	0	0	0	511	527	
7	0	0	0	0	509	520	
8	0	0	0	0	508	512	
9	0	0	0	0	517	509	
10	0	0	0	0	524	505	
11	0	0	0	0	516	499	
12	0	0	0	0	518	497	
13	0	0	0	0	518	490	
14	0	0	0	0	517	492	
15	0	0	0	0	513	492	
0	0	0	0	0	506	489	
1	0	0	0	0	502	493	
2	0	0	0	0	494	498	
3	0	0	0	0	500	503	
4	0	0	0	0	511	514	
5	0	0	0	0	515	519	
6	0	0	0	0	518	521	
7	0	0	0	0	517	526	
8	0	0	0	0	516	525	
9	0	0	0	0	516	524	
10	0	0	0	0	518	520	
11	0	0	0	0	519	513	
12	0	0	0	0	517	510	
13	0	0	0	0	516	503	
14	0	0	0	0	514	494	
15	0	0	0	0	511	493	
0	0	0	0	0	511	501	
1	0	0	0	0	514	508	
2	0	0	0	0	515	514	
3	0	0	0	0	513	517	
4	0	0	0	0	510	519	
5	0	0	0	0	511	522	
6	0	0	0	0	509	517	
7	0	0	0	0	504	506	
8	0	0	0	0	505	497	
9	0	0	0	0	500	477	
10	0	0	0	0	497	469	
11	0	0	0	0	505	484	
12	0	0	0	0	512	503	
13	0	0	0	0	512	529	
14	0	0	0	0	499	544	
15	0	0	0	0	499	554	
0	0	0	0	0	496	556	
1	0	0	0	0	498	554	
2	0	0	0	0	498	542	
3	0	0	0	0	504	530	
4	0	0	0	0	511	515	
5	0	0	0	0	517	498	
6	0	0	0	0	516	487	
7	0	0	0	0	521	480	
8	0	0	0	0	518	477	
9	0	0	0	0	514	484	
10	0	0	0	0	512	492	
11	0	0	0	0	511	495	
12	0	0	0	0	508	500	
13	0	0	0	0	498	507	
14	0	0	0	0	500	518	
15	0	0	0	0	511	527	
0	0	0	0	0	519	535	
1	0	0	0	0	513	534	
2	0	0	0	0	513	534	
3	0	0	0	0	520	523	
4	0	0	0	0	522	504	
5	0	0	0	0	522	491	
6	0	0	0	0	519	491	
7	0	0	0	0	513	496	
8	0	0	0	0	505	507	
9	0	0	0	0	500	511	
10	0	0	0	0	505	508	
11	0	0	0	0	509	508	
12	0	0	0	0	506	505	
13	0	0	0	0	509	505	
14	0	0	0	0	505	504	
15	0	0	0	0	504	507	
0	0	0	0	0	503	513	
1	0	0	0	0	499	521	
2	0	0	0	0	499	530	
3	0	0	0	0	505	537	
4	0	0	0	0	515	534	
5	0	0	0	0	514	529	
6	0	0	0	0	510	514	
7	0	0	0	0	508	508	
8	0	0	0	0	518	500	
9	0	0	0	0	526	494	
10	0	0	0	0	527	496	
11	0	0	0	0	515	498	
12	0	0	0	0	510	502	
13	0	0	0	0	505	505	
14	0	0	0	0	507	510	
15	0	0	0	0	512	513	
0	0	0	0	0	512	511	
1	0	0	0	0	518	505	
2	0	0	0	0	516	506	
3	0	0	0	0	512	505	
4	0	0	0	0	515	506	
5	0	0	0	0	515	508	
6	0	0	0	0	512	512	
7	0	0	0	0	507	510	
8	0	0	0	0	507	512	
9	0	0	0	0	509	509	
10	0	0	0	0	512	508	
11	0	0	0	0	511	508	
12	0	0	0	0	504	499	
13	0	0	0	0	502	496	
14	0	0	0	0	514	496	
15	0	0	0	0	521	503	
0	0	0	0	0	517	508	
1	0	0	0	0	508	512	
2	0	0	0	0	501	510	
3	0	0	0	0	497	505	
4	0	0	0	0	493	511	
5	0	0	0	0	496	524	
6	0	0	0	0	504	534	
7	0	0	0	0	515	532	
8	0	0	0	0	524	528	
9	0	0	0	0	533	521	
10	0	0	0	0	533	518	
11	0	0	0	0	532	514	
12	0	0	0	0	527	510	
13	0	0	0	0	522	508	
14	0	0	0	0	518	509	
15	0	0	0	0	514	509	
0	0	0	0	0	509	507	
1	0	0	0	0	500	504	
2	0	0	0	0	487	505	
3	0	0	0	0	479	495	
4	0	0	0	0	483	493	
5	0	0	0	0	487	498	
6	0	0	0	0	489	507	
7	0	0	0	0	491	517	
8	0	0	0	0	500	524	
9	0	0	0	0	509	531	
10	0	0	0	0	515	536	
11	0	0	0	0	526	535	
12	0	0	0	0	531	522	
13	0	0	0	0	521	510	
14	0	0	0	0	514	499	
15	0	0	0	0	512	489	
0	0	0	0	0	514	490	
1	0	0	0	0	520	496	
2	0	0	0	0	518	500	
3	0	0	0	0	515	506	
4	0	0	0	0	508	512	
5	0	0	0	0	506	518	
6	0	0	0	0	508	515	
7	0	0	0	0	509	511	
8	0	0	0	0	511	512	
9	0	0	0	0	513	507	
10	0	0	0	0	518	508	
11	0	0	0	0	516	514	
12	0	0	0	0	517	513	
13	0	0	0	0	511	514	
14	0	0	0	0	509	508	
15	0	0	0	0	507	504	
0	0	0	0	0	508	500	
1	0	0	0	0	502	499	
2	0	0	0	0	504	505	
3	0	0	0	0	505	505	
4	0	0	0	0	511	506	
5	0	0	0	0	519	510	
6	0	0	0	0	524	516	
7	0	0	0	0	527	519	
8	0	0	0	0	527	524	
9	0	0	0	0	519	521	
10	0	0	0	0	523	515	
11	0	0	0	0	526	509	
12	0	0	0	0	522	508	
13	0	0	0	0	516	508	
14	0	0	0	0	514	506	
15	0	0	0	0	510	507	
0	0	0	0	0	501	503	
1	0	0	0	0	494	503	
2	0	0	0	0	491	508	
3	0	0	0	0	499	509	
4	0	0	0	0	506	510	
5	0	0	0	0	512	516	
6	0	0	0	0	510	519	
7	0	0	0	0	508	518	
8	0	0	0	0	507	522	
9	0	0	0	0	499	523	
10	0	0	0	0	495	519	
11	0	0	0	0	492	518	
12	0	0	0	0	492	518	
13	0	0	0	0	492	513	
14	0	0	0	0	498	511	
15	0	0	0	0	512	504	
0	0	0	0	0	532	497	
1	0	0	0	0	543	494	
2	0	0	0	0	539	492	
3	0	0	0	0	529	497	
4	0	0	0	0	521	508	
5	0	0	0	0	515	513	
6	0	0	0	0	508	516	
7	0	0	0	0	494	519	
8	0	0	0	0	483	527	
9	0	0	0	0	475	527	
10	0	0	0	0	489	513	
11	0	0	0	0	508	498	
12	0	0	0	0	515	497	
13	0	0	0	0	520	503	
14	0	0	0	0	528	507	
15	0	0	0	0	533	504	
0	0	0	0	0	531	495	
1	0	0	0	0	527	498	
2	0	0	0	0	515	508	
3	0	0	0	0	506	508	
4	0	0	0	0	506	506	
5	0	0	0	0	508	511	
6	0	0	0	0	502	518	
7	0	0	0	0	499	530	
8	0	0	0	0	503	534	
9	0	0	0	0	505	532	
10	0	0	0	0	506	526	
11	0	0	0	0	511	524	
12	0	0	0	0	515	523	
13	0	0	0	0	521	513	
14	0	0	0	0	524	507	
15	0	0	0	0	518	504	
0	0	0	0	0	514	503	
1	0	0	0	0	513	499	
2	0	0	0	0	510	499	
3	0	0	0	0	511	502	
4	0	0	0	0	508	504	
5	0	0	0	0	510	505	
6	0	0	0	0	514	505	
7	0	0	0	0	506	504	
8	0	0	0	0	505	506	
9	0	0	0	0	509	501	
10	0	0	0	0	513	504	
11	0	0	0	0	510	504	
12	0	0	0	0	505	501	
13	0	0	0	0	505	501	
14	0	0	0	0	507	495	
15	0	0	0	0	504	488	
0	0	0	0	0	511	493	
1	0	0	0	0	515	499	
2	0	0	0	0	521	505	
3	0	0	0	0	523	520	
4	0	0	0	0	520	536	
5	0	0	0	0	519	543	
6	0	0	0	0	510	546	
7	0	0	0	0	510	550	
8	0	0	0	0	503	541	
9	0	0	0	0	491	526	
10	0	0	0	0	487	518	
11	0	0	0	0	494	511	
12	0	0	0	0	500	505	
13	0	0	0	0	500	503	
14	0	0	0	0	513	503	
15	0	0	0	0	522	500	
0	0	0	0	0	516	500	
1	0	0	0	0	524	503	
2	0	0	0	0	532	499	
3	0	0	0	0	533	498	
4	0	0	0	0	521	505	
5	0	0	0	0	513	513	
6	0	0	0	0	504	519	
7	0	0	0	0	496	526	
8	0	0	0	0	491	523	
9	0	0	0	0	498	519	
10	0	0	0	0	503	515	
11	0	0	0	0	511	511	
12	0	0	0	0	518	507	
13	0	0	0	0	523	503	
14	0	0	0	0	523	502	
15	0	0	0	0	521	500	
0	0	0	0	0	516	502	
1	0	0	0	0	516	505	
2	0	0	0	0	517	508	
3	0	0	0	0	516	508	
4	0	0	0	0	513	507	
5	0	0	0	0	509	508	
6	0	0	0	0	506	507	
7	0	0	0	0	505	502	
8	0	0	0	0	501	502	
9	0	0	0	0	489	503	
10	0	0	0	0	481	508	
11	0	0	0	0	481	508	
12	0	0	0	0	495	509	
13	0	0	0	0	505	501	
14	0	0	0	0	516	498	
15	0	0	0	0	519	504	
0	0	0	0	0	514	502	
1	0	0	0	0	518	505	
2	0	0	0	0	518	513	
3	0	0	0	0	524	521	
4	0	0	0	0	530	532	
5	0	0	0	0	526	540	
6	0	0	0	0	516	540	
7	0	0	0	0	511	537	
8	0	0	0	0	506	527	
9	0	0	0	0	504	515	
10	0	0	0	0	504	504	
11	0	0	0	0	515	504	
12	0	0	0	0	515	501	
13	0	0	0	0	518	502	
14	0	0	0	0	527	504	
15	0	0	0	0	534	504	
0	0	0	0	0	535	508	
1	0	0	0	0	526	502	
2	0	0	0	0	513	497	
3	0	0	0	0	497	502	
4	0	0	0	0	487	503	
5	0	0	0	0	487	508	
6	0	0	0	0	484	512	
7	0	0	0	0	483	512	
8	0	0	0	0	489	517	
9	0	0	0	0	499	513	
10	0	0	0	0	508	506	
11	0	0	0	0	511	504	
12	0	0	0	0	510	506	
13	0	0	0	0	510	511	
14	0	0	0	0	519	513	
15	0	0	0	0	519	503	
0	0	0	0	0	520	499	
1	0	0	0	0	519	504	
2	0	0	0	0	519	512	
3	0	0	0	0	514	520	
4	0	0	0	0	510	519	
5	0	0	0	0	511	522	
6	0	0	0	0	512	521	
7	0	0	0	0	515	525	
8	0	0	0	0	516	532	
9	0	0	0	0	518	523	
10	0	0	0	0	518	513	
11	0	0	0	0	520	503	
12	0	0	0	0	525	494	
13	0	0	0	0	524	490	
14	0	0	0	0	515	493	
15	0	0	0	0	507	500	
0	0	0	0	0	499	499	
1	0	0	0	0	497	495	
2	0	0	0	0	500	492	
3	0	0	0	0	500	498	
4	0	0	0	0	501	511	
5	0	0	0	0	503	520	
6	0	0	0	0	506	519	
7	0	0	0	0	506	521	
8	0	0	0	0	507	529	
9	0	0	0	0	515	537	
10	0	0	0	0	524	541	
11	0	0	0	0	523	529	
12	0	0	0	0	516	521	
13	0	0	0	0	512	515	
14	0	0	0	0	508	515	
15	0	0	0	0	506	513	
0	0	0	0	0	501	504	
1	0	0	0	0	496	502	
2	0	0	0	0	496	505	
3	0	0	0	0	497	504	
4	0	0	0	0	496	497	
5	0	0	0	0	505	499	
6	0	0	0	0	512	505	
7	0	0	0	0	509	504	
8	0	0	0	0	511	506	
9	0	0	0	0	516	515	
10	0	0	0	0	516	514	
11	0	0	0	0	524	510	
12	0	0	0	0	524	514	
13	0	0	0	0	525	516	
14	0	0	0	0	529	511	
15	0	0	0	0	526	508	
0	0	0	0	0	513	501	
1	0	0	0	0	508	498	
2	0	0	0	0	505	499	
3	0	0	0	0	501	500	
4	0	0	0	0	499	503	
5	0	0	0	0	491	504	
6	0	0	0	0	481	507	
7	0	0	0	0	499	510	
8	0	0	0	0	519	504	
9	0	0	0	0	527	500	
10	0	0	0	0	527	492	
11	0	0	0	0	523	481	
12	0	0	0	0	523	494	
13	0	0	0	0	521	513	
14	0	0	0	0	517	531	
15	0	0	0	0	511	543	
0	0	0	0	0	501	550	
1	0	0	0	0	495	552	
2	0	0	0	0	502	554	
3	0	0	0	0	512	551	
4	0	0	0	0	511	536	
5	0	0	0	0	509	517	
6	0	0	0	0	519	504	
7	0	0	0	0	519	493	
8	0	0	0	0	521	490	
9	0	0	0	0	514	486	
10	0	0	0	0	504	489	
11	0	0	0	0	500	496	
12	0	0	0	0	499	498	
13	0	0	0	0	501	503	
14	0	0	0	0	500	506	
15	0	0	0	0	508	510	
0	0	0	0	0	516	508	
1	0	0	0	0	516	506	
2	0	0	0	0	513	507	
3	0	0	0	0	510	510	
4	0	0	0	0	506	512	
5	0	0	0	0	509	512	
6	0	0	0	0	504	510	
7	0	0	0	0	505	509	
8	0	0	0	0	510	510	
9	0	0	0	0	516	513	
10	0	0	0	0	515	511	
11	0	0	0	0	519	507	
12	0	0	0	0	520	507	
13	0	0	0	0	523	508	
14	0	0	0	0	519	508	
15	0	0	0	0	514	509	
0	0	0	0	0	511	510	
1	0	0	0	0	508	511	
2	0	0	0	0	507	514	
3	0	0	0	0	505	513	
4	0	0	0	0	511	511	
5	0	0	0	0	516	504	
6	0	0	0	0	524	505	
7	0	0	0	0	519	505	
8	0	0	0	0	515	508	
9	0	0	0	0	513	507	
10	0	0	0	0	506	507	
11	0	0	0	0	510	511	
12	0	0	0	0	504	508	
13	0	0	0	0	492	511	
14	0	0	0	0	494	513	
15	0	0	0	0	496	506	
0	0	0	0	0	499	504	
1	0	0	0	0	508	511	
2	0	0	0	0	511	519	
3	0	0	0	0	508	524	
4	0	0	0	0	503	524	
5	0	0	0	0	504	519	
6	0	0	0	0	506	519	
7	0	0	0	0	515	520	
8	0	0	0	0	523	522	
9	0	0	0	0	527	519	
10	0	0	0	0	525	513	
11	0	0	0	0	522	510	
12	0	0	0	0	510	510	
13	0	0	0	0	507	512	
14	0	0	0	0	501	507	
15	0	0	0	0	502	490	
0	0	0	0	0	501	477	
1	0	0	0	0	501	476	
2	0	0	0	0	505	483	
3	0	0	0	0	508	496	
4	0	0	0	0	515	510	
5	0	0	0	0	518	527	
6	0	0	0	0	524	538	
7	0	0	0	0	526	547	
8	0	0	0	0	527	552	
9	0	0	0	0	525	543	
10	0	0	0	0	513	531	
11	0	0	0	0	509	519	
12	0	0	0	0	505	509	
13	0	0	0	0	502	500	
14	0	0	0	0	502	496	
15	0	0	0	0	507	498	
0	0	0	0	0	512	496	
1	0	0	0	0	515	499	
2	0	0	0	0	511	502	
3	0	0	0	0	506	503	
4	0	0	0	0	501	502	
5	0	0	0	0	503	501	
6	0	0	0	0	504	495	
7	0	0	0	0	500	486	
8	0	0	0	0	515	484	
9	0	0	0	0	518	489	
10	0	0	0	0	514	489	
11	0	0	0	0	510	501	
12	0	0	0	0	504	511	
13	0	0	0	0	498	526	
14	0	0	0	0	490	536	
15	0	0	0	0	496	540	
0	0	0	0	0	507	535	
1	0	0	0	0	515	536	
2	0	0	0	0	520	534	
3	0	0	0	0	524	523	
4	0	0	0	0	529	519	
5	0	0	0	0	526	513	
6	0	0	0	0	520	507	
7	0	0	0	0	521	504	
8	0	0	0	0	517	502	
9	0	0	0	0	512	501	
10	0	0	0	0	512	497	
11	0	0	0	0	511	499	
12	0	0	0	0	505	501	
13	0	0	0	0	509	503	
14	0	0	0	0	512	505	
15	0	0	0	0	512	508	
0	0	0	0	0	512	510	
1	0	0	0	0	511	511	
2	0	0	0	0	504	513	
3	0	0	0	0	504	515	
4	0	0	0	0	505	513	
5	0	0	0	0	505	515	
6	0	0	0	0	510	519	
7	0	0	0	0	508	515	
8	0	0	0	0	506	509	
9	0	0	0	0	507	508	
10	0	0	0	0	505	505	
11	0	0	0	0	506	502	
12	0	0	0	0	511	507	
13	0	0	0	0	512	503	
14	0	0	0	0	519	502	
15	0	0	0	0	519	497	
0	0	0	0	0	521	499	
1	0	0	0	0	516	503	
2	0	0	0	0	511	508	
3	0	0	0	0	509	507	
4	0	0	0	0	504	512	
5	0	0	0	0	503	516	
6	0	0	0	0	500	514	
7	0	0	0	0	501	515	
8	0	0	0	0	511	518	
9	0	0	0	0	518	519	
10	0	0	0	0	520	519	
11	0	0	0	0	515	520	
12	0	0	0	0	508	517	
13	0	0	0	0	503	517	
14	0	0	0	0	504	516	
15	0	0	0	0	507	521	
0	0	0	0	0	510	520	
1	0	0	0	0	512	518	
2	0	0	0	0	516	517	
3	0	0	0	0	515	516	
4	0	0	0	0	514	514	
5	0	0	0	0	511	506	
6	0	0	0	0	513	504	
7	0	0	0	0	515	504	
8	0	0	0	0	506	504	
9	0	0	0	0	500	505	
10	0	0	0	0	500	505	
11	0	0	0	0	509	498	
12	0	0	0	0	519	501	
13	0	0	0	0	521	503	
14	0	0	0	0	519	507	
15	0	0	0	0	513	509	
0	0	0	0	0	503	507	
1	0	0	0	0	498	505	
2	0	0	0	0	499	508	
3	0	0	0	0	495	511	
4	0	0	0	0	495	515	
5	0	0	0	0	503	517	
6	0	0	0	0	519	513	
7	0	0	0	0	524	512	
8	0	0	0	0	522	512	
9	0	0	0	0	520	516	
10	0	0	0	0	519	518	
11	0	0	0	0	512	514	
12	0	0	0	0	506	502	
13	0	0	0	0	503	500	
14	0	0	0	0	503	501	
15	0	0	0	0	505	505	
0	0	0	0	0	515	510	
1	0	0	0	0	515	517	
2	0	0	0	0	519	517	
3	0	0	0	0	527	519	
4	0	0	0	0	529	512	
5	0	0	0	0	526	514	
6	0	0	0	0	513	512	
7	0	0	0	0	508	518	
8	0	0	0	0	504	510	
9	0	0	0	0	499	507	
10	0	0	0	0	500	504	
11	0	0	0	0	511	511	
12	0	0	0	0	514	523	
13	0	0	0	0	514	519	
14	0	0	0	0	514	516	
15	0	0	0	0	510	517	
0	0	0	0	0	502	515	
1	0	0	0	0	499	515	
2	0	0	0	0	498	509	
3	0	0	0	0	496	508	
4	0	0	0	0	504	507	
5	0	0	0	0	515	501	
6	0	0	0	0	521	501	
7	0	0	0	0	519	500	
8	0	0	0	0	515	502	
9	0	0	0	0	513	500	
10	0	0	0	0	518	494	
11	0	0	0	0	517	496	
12	0	0	0	0	511	502	
13	0	0	0	0	506	504	
14	0	0	0	0	507	505	
15	0	0	0	0	504	502	
0	0	0	0	0	510	495	
1	0	0	0	0	503	488	
2	0	0	0	0	495	482	
3	0	0	0	0	501	480	
4	0	0	0	0	502	493	
5	0	0	0	0	503	516	
6	0	0	0	0	508	535	
7	0	0	0	0	512	550	
8	0	0	0	0	518	567	
9	0	0	0	0	518	570	
10	0	0	0	0	516	566	
11	0	0	0	0	514	549	
12	0	0	0	0	514	534	
13	0	0	0	0	512	517	
14	0	0	0	0	511	500	
15	0	0	0	0	513	491	
0	0	0	0	0	513	479	
1	0	0	0	0	519	469	
2	0	0	0	0	526	474	
3	0	0	0	0	525	488	
4	0	0	0	0	521	500	
5	0	0	0	0	521	514	
6	0	0	0	0	522	519	
7	0	0	0	0	515	527	
8	0	0	0	0	512	532	
9	0	0	0	0	502	538	
10	0	0	0	0	494	532	
11	0	0	0	0	498	519	
12	0	0	0	0	512	508	
13	0	0	0	0	515	498	
14	0	0	0	0	512	495	
15	0	0	0	0	500	494	
0	0	0	0	0	487	497	
1	0	0	0	0	487	503	
2	0	0	0	0	495	505	
3	0	0	0	0	502	507	
4	0	0	0	0	505	506	
5	0	0	0	0	506	505	
6	0	0	0	0	513	514	
7	0	0	0	0	512	513	
8	0	0	0	0	514	512	
9	0	0	0	0	513	510	
10	0	0	0	0	511	511	
11	0	0	0	0	507	508	
12	0	0	0	0	511	505	
13	0	0	0	0	515	508	
14	0	0	0	0	517	508	
15	0	0	0	0	527	508	
0	0	0	0	0	530	510	
1	0	0	0	0	533	509	
2	0	0	0	0	536	508	
3	0	0	0	0	528	506	
4	0	0	0	0	528	507	
5	0	0	0	0	520	511	
6	0	0	0	0	498	507	
7	0	0	0	0	481	501	
8	0	0	0	0	478	492	
9	0	0	0	0	483	499	
10	0	0	0	0	489	509	
11	0	0	0	0	493	521	
12	0	0	0	0	507	529	
13	0	0	0	0	512	528	
14	0	0	0	0	515	525	
15	0	0	0	0	519	523	
0	0	0	0	0	519	512	
1	0	0	0	0	513	512	
2	0	0	0	0	512	512	
3	0	0	0	0	513	512	
4	0	0	0	0	513	511	
5	0	0	0	0	519	513	
6	0	0	0	0	518	511	
7	0	0	0	0	517	510	
8	0	0	0	0	515	499	
9	0	0	0	0	510	490	
10	0	0	0	0	511	491	
11	0	0	0	0	513	497	
12	0	0	0	0	511	508	
13	0	0	0	0	511	515	
14	0	0	0	0	512	524	
15	0	0	0	0	509	527	
0	0	0	0	0	507	530	
1	0	0	0	0	504	533	
2	0	0	0	0	498	537	
3	0	0	0	0	494	521	
4	0	0	0	0	495	510	
5	0	0	0	0	503	503	
6	0	0	0	0	507	503	
7	0	0	0	0	510	502	
8	0	0	0	0	521	499	
9	0	0	0	0	524	485	
10	0	0	0	0	528	481	
11	0	0	0	0	530	488	
12	0	0	0	0	524	500	
13	0	0	0	0	518	515	
14	0	0	0	0	514	524	
15	0	0	0	0	515	527	
0	0	0	0	0	516	527	
1	0	0	0	0	506	531	
2	0	0	0	0	507	535	
3	0	0	0	0	499	527	
4	0	0	0	0	508	515	
5	0	0	0	0	515	508	
6	0	0	0	0	523	504	
7	0	0	0	0	522	500	
8	0	0	0	0	513	502	
9	0	0	0	0	508	506	
10	0	0	0	0	512	511	
11	0	0	0	0	513	512	
12	0	0	0	0	503	507	
13	0	0	0	0	494	506	
14	0	0	0	0	491	504	
15	0	0	0	0	486	503	
0	0	0	0	0	480	497	
1	0	0	0	0	485	496	
2	0	0	0	0	504	492	
3	0	0	0	0	511	500	
4	0	0	0	0	515	502	
5	0	0	0	0	519	507	
6	0	0	0	0	520	511	
7	0	0	0	0	520	513	
8	0	0	0	0	518	519	
9	0	0	0	0	516	530	
10	0	0	0	0	507	535	
11	0	0	0	0	504	531	
12	0	0	0	0	503	525	
13	0	0	0	0	514	518	
14	0	0	0	0	519	505	
15	0	0	0	0	526	504	
0	0	0	0	0	524	504	
1	0	0	0	0	521	507	
2	0	0	0	0	521	505	
3	0	0	0	0	517	511	
4	0	0	0	0	515	511	
5	0	0	0	0	516	512	
6	0	0	0	0	515	509	
7	0	0	0	0	520	509	
8	0	0	0	0	518	505	
9	0	0	0	0	519	504	
10	0	0	0	0	519	503	
11	0	0	0	0	517	496	
12	0	0	0	0	514	488	
13	0	0	0	0	504	487	
14	0	0	0	0	499	492	
15	0	0	0	0	497	503	
0	0	0	0	0	490	512	
1	0	0	0	0	486	524	
2	0	0	0	0	494	528	
3	0	0	0	0	496	526	
4	0	0	0	0	502	517	
5	0	0	0	0	516	519	
6	0	0	0	0	526	528	
7	0	0	0	0	526	527	
8	0	0	0	0	527	523	
9	0	0	0	0	518	514	
10	0	0	0	0	509	508	
11	0	0	0	0	505	507	
12	0	0	0	0	504	507	
13	0	0	0	0	505	505	
14	0	0	0	0	502	505	
15	0	0	0	0	504	508	
0	0	0	0	0	507	512	
1	0	0	0	0	512	519	
2	0	0	0	0	514	521	
3	0	0	0	0	510	523	
4	0	0	0	0	509	516	
5	0	0	0	0	507	508	
6	0	0	0	0	508	500	
7	0	0	0	0	514	498	
8	0	0	0	0	528	502	
9	0	0	0	0	540	508	
10	0	0	0	0	535	512	
11	0	0	0	0	528	516	
12	0	0	0	0	527	516	
13	0	0	0	0	516	517	
14	0	0	0	0	502	519	
15	0	0	0	0	492	515	
0	0	0	0	0	479	507	
1	0	0	0	0	471	497	
2	0	0	0	0	480	490	
3	0	0	0	0	495	488	
4	0	0	0	0	496	494	
5	0	0	0	0	499	505	
6	0	0	0	0	505	518	
7	0	0	0	0	512	524	
8	0	0	0	0	523	527	
9	0	0	0	0	526	528	
10	0	0	0	0	531	526	
11	0	0	0	0	523	527	
12	0	0	0	0	513	517	
13	0	0	0	0	513	514	
14	0	0	0	0	516	510	
15	0	0	0	0	515	506	
0	0	0	0	0	513	504	
1	0	0	0	0	502	505	
2	0	0	0	0	496	503	
3	0	0	0	0	499	502	
4	0	0	0	0	509	500	
5	0	0	0	0	513	499	
6	0	0	0	0	515	502	
7	0	0	0	0	515	503	
8	0	0	0	0	520	503	
9	0	0	0	0	518	505	
10	0	0	0	0	517	504	
11	0	0	0	0	514	503	
12	0	0	0	0	506	506	
13	0	0	0	0	512	510	
14	0	0	0	0	514	510	
15	0	0	0	0	516	512	
0	0	0	0	0	515	515	
1	0	0	0	0	509	514	
2	0	0	0	0	511	510	
3	0	0	0	0	512	511	
4	0	0	0	0	510	515	
5	0	0	0	0	510	518	
6	0	0	0	0	507	515	
7	0	0	0	0	511	517	
8	0	0	0	0	514	515	
9	0	0	0	0	512	515	
10	0	0	0	0	511	517	
11	0	0	0	0	514	516	
12	0	0	0	0	515	514	
13	0	0	0	0	517	510	
14	0	0	0	0	513	508	
15	0	0	0	0	515	508	
0	0	0	0	0	514	507	
1	0	0	0	0	515	508	
2	0	0	0	0	510	509	
3	0	0	0	0	508	508	
4	0	0	0	0	505	506	
5	0	0	0	0	490	506	
6	0	0	0	0	489	506	
7	0	0	0	0	494	507	
8	0	0	0	0	500	504	
9	0	0	0	0	504	507	
10	0	0	0	0	510	510	
11	0	0	0	0	508	513	
12	0	0	0	0	512	513	
13	0	0	0	0	514	506	
14	0	0	0	0	515	502	
15	0	0	0	0	518	499	
0	0	0	0	0	514	505	
1	0	0	0	0	514	509	
2	0	0	0	0	512	509	
3	0	0	0	0	513	510	
4	0	0	0	0	518	514	
5	0	0	0	0	522	523	
6	0	0	0	0	519	527	
7	0	0	0	0	508	525	
8	0	0	0	0	509	517	
9	0	0	0	0	507	507	
10	0	0	0	0	507	504	
11	0	0	0	0	509	511	
12	0	0	0	0	502	513	
13	0	0	0	0	505	513	
14	0	0	0	0	507	516	
15	0	0	0	0	512	521	
0	0	0	0	0	514	518	
1	0	0	0	0	514	514	
2	0	0	0	0	514	501	
3	0	0	0	0	510	484	
4	0	0	0	0	516	484	
5	0	0	0	0	533	492	
6	0	0	0	0	532	497	
7	0	0	0	0	523	508	
8	0	0	0	0	513	514	
9	0	0	0	0	499	525	
10	0	0	0	0	491	536	
11	0	0	0	0	492	539	
12	0	0	0	0	491	532	
13	0	0	0	0	492	525	
14	0	0	0	0	496	521	
15	0	0	0	0	504	514	
0	0	0	0	0	513	510	
1	0	0	0	0	519	504	
2	0	0	0	0	521	499	
3	0	0	0	0	519	501	
4	0	0	0	0	516	502	
5	0	0	0	0	517	505	
6	0	0	0	0	515	502	
7	0	0	0	0	512	503	
8	0	0	0	0	515	499	
9	0	0	0	0	522	500	
10	0	0	0	0	519	504	
11	0	0	0	0	515	511	
12	0	0	0	0	509	512	
13	0	0	0	0	505	513	
14	0	0	0	0	496	514	
15	0	0	0	0	499	513	
0	0	0	0	0	496	514	
1	0	0	0	0	489	515	
2	0	0	0	0	494	513	
3	0	0	0	0	502	510	
4	0	0	0	0	512	509	
5	0	0	0	0	519	508	
6	0	0	0	0	517	504	
7	0	0	0	0	524	500	
8	0	0	0	0	524	499	
9	0	0	0	0	531	502	
10	0	0	0	0	532	505	
11	0	0	0	0	525	510	
12	0	0	0	0	520	514	
13	0	0	0	0	511	515	
14	0	0	0	0	499	515	
15	0	0	0	0	497	515	
0	0	0	0	0	497	511	
1	0	0	0	0	499	511	
2	0	0	0	0	499	509	
3	0	0	0	0	504	506	
4	0	0	0	0	506	504	
5	0	0	0	0	507	504	
6	0	0	0	0	520	507	
7	0	0	0	0	529	511	
8	0	0	0	0	522	520	
9	0	0	0	0	509	523	
10	0	0	0	0	500	525	
11	0	0	0	0	494	522	
12	0	0	0	0	488	523	
13	0	0	0	0	494	519	
14	0	0	0	0	500	513	
15	0	0	0	0	504	510	
0	0	0	0	0	515	509	
1	0	0	0	0	529	508	
2	0	0	0	0	536	502	
3	0	0	0	0	531	503	
4	0	0	0	0	518	503	
5	0	0	0	0	512	504	
6	0	0	0	0	508	504	
7	0	0	0	0	504	502	
8	0	0	0	0	508	505	
9	0	0	0	0	511	507	
10	0	0	0	0	504	505	
11	0	0	0	0	511	508	
12	0	0	0	0	511	508	
13	0	0	0	0	508	512	
14	0	0	0	0	503	516	
15	0	0	0	0	503	519	
0	0	0	0	0	503	519	
1	0	0	0	0	508	519	
2	0	0	0	0	511	513	
3	0	0	0	0	513	508	
4	0	0	0	0	512	505	
5	0	0	0	0	512	507	
6	0	0	0	0	513	504	
7	0	0	0	0	516	506	
8	0	0	0	0	521	510	
9	0	0	0	0	519	511	
10	0	0	0	0	518	516	
11	0	0	0	0	515	518	
12	0	0	0	0	518	519	
13	0	0	0	0	517	518	
14	0	0	0	0	516	514	
15	0	0	0	0	513	515	
0	0	0	0	0	511	515	
1	0	0	0	0	515	511	
2	0	0	0	0	517	505	
3	0	0	0	0	518	503	
4	0	0	0	0	514	499	
5	0	0	0	0	508	498	
6	0	0	0	0	504	500	
7	0	0	0	0	498	504	
8	0	0	0	0	498	509	
9	0	0	0	0	498	508	
10	0	0	0	0	498	509	
11	0	0	0	0	500	512	
12	0	0	0	0	503	512	
13	0	0	0	0	504	514	
14	0	0	0	0	508	520	
15	0	0	0	0	511	519	
0	0	0	0	0	509	519	
1	0	0	0	0	510	513	
2	0	0	0	0	514	513	
3	0	0	0	0	512	514	
4	0	0	0	0	516	509	
5	0	0	0	0	514	504	
6	0	0	0	0	514	503	
7	0	0	0	0	517	503	
8	0	0	0	0	511	505	
9	0	0	0	0	513	509	
10	0	0	0	0	511	513	
11	0	0	0	0	509	512	
12	0	0	0	0	513	512	
13	0	0	0	0	522	512	
14	0	0	0	0	525	515	
15	0	0	0	0	521	516	
0	0	0	0	0	514	512	
1	0	0	0	0	509	511	
2	0	0	0	0	503	510	
3	0	0	0	0	499	513	
4	0	0	0	0	496	511	
5	0	0	0	0	495	511	
6	0	0	0	0	495	509	
7	0	0	0	0	503	507	
8	0	0	0	0	505	506	
9	0	0	0	0	505	508	
10	0	0	0	0	516	513	
11	0	0	0	0	523	511	
12	0	0	0	0	523	512	
13	0	0	0	0	514	511	
14	0	0	0	0	512	512	
15	0	0	0	0	507	510	
0	0	0	0	0	504	510	
1	0	0	0	0	504	511	
2	0	0	0	0	504	510	
3	0	0	0	0	503	512	
4	0	0	0	0	509	510	
5	0	0	0	0	515	507	
6	0	0	0	0	513	505	
7	0	0	0	0	515	505	
8	0	0	0	0	513	497	
9	0	0	0	0	512	499	
10	0	0	0	0	513	502	
11	0	0	0	0	518	506	
12	0	0	0	0	520	512	
13	0	0	0	0	516	513	
14	0	0	0	0	514	511	
15	0	0	0	0	508	516	
0	0	0	0	0	508	522	
1	0	0	0	0	507	521	
2	0	0	0	0	507	516	
3	0	0	0	0	504	506	
4	0	0	0	0	510	505	
5	0	0	0	0	512	510	
6	0	0	0	0	514	511	
7	0	0	0	0	512	516	
8	0	0	0	0	510	517	
9	0	0	0	0	511	518	
10	0	0	0	0	507	521	
11	0	0	0	0	511	526	
12	0	0	0	0	510	524	
13	0	0	0	0	507	518	
14	0	0	0	0	510	511	
15	0	0	0	0	511	511	
0	0	0	0	0	515	508	
1	0	0	0	0	515	503	
2	0	0	0	0	509	495	
3	0	0	0	0	509	493	
4	0	0	0	0	508	493	
5	0	0	0	0	507	498	
6	0	0	0	0	505	503	
7	0	0	0	0	505	507	
8	0	0	0	0	505	508	
9	0	0	0	0	509	513	
10	0	0	0	0	510	519	
11	0	0	0	0	512	518	
12	0	0	0	0	515	513	
13	0	0	0	0	516	509	
14	0	0	0	0	518	502	
15	0	0	0	0	516	500	
0	0	0	0	0	515	492	
1	0	0	0	0	515	485	
2	0	0	0	0	524	491	
3	0	0	0	0	521	502	
4	0	0	0	0	519	513	
5	0	0	0	0	519	531	
6	0	0	0	0	511	539	
7	0	0	0	0	506	543	
8	0	0	0	0	500	535	
9	0	0	0	0	502	533	
10	0	0	0	0	495	533	
11	0	0	0	0	489	522	
12	0	0	0	0	496	508	
13	0	0	0	0	498	498	
14	0	0	0	0	501	497	
15	0	0	0	0	507	498	
0	0	0	0	0	514	500	
1	0	0	0	0	515	504	
2	0	0	0	0	513	505	
3	0	0	0	0	518	510	
4	0	0	0	0	521	512	
5	0	0	0	0	518	508	
6	0	0	0	0	516	502	
7	0	0	0	0	510	502	
8	0	0	0	0	511	504	
9	0	0	0	0	513	505	
10	0	0	0	0	513	504	
11	0	0	0	0	518	509	
12	0	0	0	0	513	511	
13	0	0	0	0	512	515	
14	0	0	0	0	511	516	
15	0	0	0	0	508	503	
0	0	0	0	0	508	495	
1	0	0	0	0	505	499	
2	0	0	0	0	511	510	
3	0	0	0	0	508	522	
4	0	0	0	0	508	524	
5	0	0	0	0	511	527	
6	0	0	0	0	513	523	
7	0	0	0	0	515	523	
8	0	0	0	0	518	522	
9	0	0	0	0	517	519	
10	0	0	0	0	512	512	
11	0	0	0	0	511	510	
12	0	0	0	0	504	508	
13	0	0	0	0	506	504	
14	0	0	0	0	502	505	
15	0	0	0	0	506	508	
0	0	0	0	0	510	509	
1	0	0	0	0	512	505	
2	0	0	0	0	515	504	
3	0	0	0	0	511	502	
4	0	0	0	0	512	500	
5	0	0	0	0	503	503	
6	0	0	0	0	504	507	
7	0	0	0	0	502	511	
8	0	0	0	0	504	511	
9	0	0	0	0	505	510	
10	0	0	0	0	507	504	
11	0	0	0	0	512	498	
12	0	0	0	0	514	499	
13	0	0	0	0	514	501	
14	0	0	0	0	515	508	
15	0	0	0	0	514	513	
0	0	0	0	0	515	520	
1	0	0	0	0	514	523	
2	0	0	0	0	515	527	
3	0	0	0	0	515	536	
4	0	0	0	0	513	528	
5	0	0	0	0	513	522	
6	0	0	0	0	511	518	
7	0	0	0	0	509	510	
8	0	0	0	0	508	508	
9	0	0	0	0	511	503	
10	0	0	0	0	518	503	
11	0	0	0	0	521	502	
12	0	0	0	0	519	502	
13	0	0	0	0	514	504	
14	0	0	0	0	510	502	
15	0	0	0	0	506	499	
0	0	0	0	0	506	501	
1	0	0	0	0	505	501	
2	0	0	0	0	504	507	
3	0	0	0	0	500	510	
4	0	0	0	0	498	513	
5	0	0	0	0	502	515	
6	0	0	0	0	510	515	
7	0	0	0	0	510	510	
8	0	0	0	0	513	512	
9	0	0	0	0	511	514	
10	0	0	0	0	508	514	
11	0	0	0	0	509	510	
12	0	0	0	0	514	505	
13	0	0	0	0	516	503	
14	0	0	0	0	519	504	
15	0	0	0	0	523	502	
0	0	0	0	0	524	502	
1	0	0	0	0	526	507	
2	0	0	0	0	521	512	
3	0	0	0	0	515	524	
4	0	0	0	0	508	533	
5	0	0	0	0	503	538	
6	0	0	0	0	500	536	
7	0	0	0	0	494	533	
8	0	0	0	0	497	525	
9	0	0	0	0	499	516	
10	0	0	0	0	505	503	
11	0	0	0	0	515	496	
12	0	0	0	0	518	491	
13	0	0	0	0	512	492	
14	0	0	0	0	503	494	
15	0	0	0	0	492	501	
0	0	0	0	0	491	504	
1	0	0	0	0	492	510	
2	0	0	0	0	491	514	
3	0	0	0	0	491	512	
4	0	0	0	0	504	508	
5	0	0	0	0	520	504	
6	0	0	0	0	526	507	
7	0	0	0	0	526	513	
8	0	0	0	0	527	513	
9	0	0	0	0	526	509	
10	0	0	0	0	533	498	
11	0	0	0	0	535	480	
12	0	0	0	0	532	472	
13	0	0	0	0	524	479	
14	0	0	0	0	516	498	
15	0	0	0	0	511	523	
0	0	0	0	0	503	541	
1	0	0	0	0	499	554	
2	0	0	0	0	500	566	
3	0	0	0	0	500	569	
4	0	0	0	0	500	564	
5	0	0	0	0	504	548	
6	0	0	0	0	511	520	
7	0	0	0	0	519	504	
8	0	0	0	0	519	497	
9	0	0	0	0	514	493	
10	0	0	0	0	508	492	
11	0	0	0	0	499	493	
12	0	0	0	0	503	491	
13	0	0	0	0	507	493	
14	0	0	0	0	506	495	
15	0	0	0	0	500	497	
0	0	0	0	0	498	497	
1	0	0	0	0	503	501	
2	0	0	0	0	509	503	
3	0	0	0	0	517	504	
4	0	0	0	0	518	505	
5	0	0	0	0	520	507	
6	0	0	0	0	527	505	
7	0	0	0	0	525	504	
8	0	0	0	0	520	506	
9	0	0	0	0	513	508	
10	0	0	0	0	515	512	
11	0	0	0	0	515	515	
12	0	0	0	0	519	514	
13	0	0	0	0	525	514	
14	0	0	0	0	516	512	
15	0	0	0	0	506	512	
0	0	0	0	0	500	513	
1	0	0	0	0	501	512	
2	0	0	0	0	507	510	
3	0	0	0	0	508	510	
4	0	0	0	0	516	510	
5	0	0	0	0	512	508	
6	0	0	0	0	500	507	
7	0	0	0	0	500	507	
8	0	0	0	0	500	509	
9	0	0	0	0	499	516	
10	0	0	0	0	494	516	
11	0	0	0	0	496	516	
12	0	0	0	0	511	521	
13	0	0	0	0	514	524	
14	0	0	0	0	513	523	
15	0	0	0	0	522	519	
0	0	0	0	0	518	514	
1	0	0	0	0	510	511	
2	0	0	0	0	503	506	
3	0	0	0	0	504	508	
4	0	0	0	0	512	503	
5	0	0	0	0	517	499	
6	0	0	0	0	516	492	
7	0	0	0	0	518	494	
8	0	0	0	0	526	492	
9	0	0	0	0	540	492	
10	0	0	0	0	536	497	
11	0	0	0	0	520	500	
12	0	0	0	0	503	504	
13	0	0	0	0	498	514	
14	0	0	0	0	492	519	
15	0	0	0	0	487	519	
0	0	0	0	0	488	523	
1	0	0	0	0	480	521	
2	0	0	0	0	485	527	
3	0	0	0	0	506	526	
4	0	0	0	0	520	521	
5	0	0	0	0	526	519	
6	0	0	0	0	529	512	
7	0	0	0	0	524	508	
8	0	0	0	0	519	508	
9	0	0	0	0	509	507	
10	0	0	0	0	512	510	
11	0	0	0	0	518	505	
12	0	0	0	0	519	502	
13	0	0	0	0	523	504	
14	0	0	0	0	524	506	
15	0	0	0	0	521	512	
0	0	0	0	0	524	515	
1	0	0	0	0	533	518	
2	0	0	0	0	529	519	
3	0	0	0	0	513	516	
4	0	0	0	0	493	514	
5	0	0	0	0	473	510	
6	0	0	0	0	473	508	
7	0	0	0	0	473	503	
8	0	0	0	0	472	500	
9	0	0	0	0	473	503	
10	0	0	0	0	487	507	
11	0	0	0	0	508	507	
12	0	0	0	0	527	507	
13	0	0	0	0	536	509	
14	0	0	0	0	536	506	
15	0	0	0	0	531	507	
0	0	0	0	0	524	507	
1	0	0	0	0	519	513	
2	0	0	0	0	517	515	
3	0	0	0	0	518	515	
4	0	0	0	0	513	517	
5	0	0	0	0	518	520	
6	0	0	0	0	518	521	
7	0	0	0	0	517	519	
8	0	0	0	0	521	519	
9	0	0	0	0	517	514	
10	0	0	0	0	521	511	
11	0	0	0	0	522	511	
12	0	0	0	0	518	506	
13	0	0	0	0	507	504	
14	0	0	0	0	498	495	
15	0	0	0	0	499	490	
0	0	0	0	0	507	491	
1	0	0	0	0	518	496	
2	0	0	0	0	519	510	
3	0	0	0	0	511	519	
4	0	0	0	0	498	525	
5	0	0	0	0	500	531	
6	0	0	0	0	496	531	
7	0	0	0	0	500	528	
8	0	0	0	0	500	523	
9	0	0	0	0	496	511	
10	0	0	0	0	494	498	
11	0	0	0	0	496	493	
12	0	0	0	0	499	497	
13	0	0	0	0	505	499	
14	0	0	0	0	515	507	
15	0	0	0	0	521	512	
0	0	0	0	0	524	515	
1	0	0	0	0	524	518	
2	0	0	0	0	526	524	
3	0	0	0	0	528	522	
4	0	0	0	0	525	515	
5	0	0	0	0	520	504	
6	0	0	0	0	520	499	
7	0	0	0	0	515	499	
8	0	0	0	0	514	498	
9	0	0	0	0	509	503	
10	0	0	0	0	506	507	
11	0	0	0	0	511	513	
12	0	0	0	0	510	516	
13	0	0	0	0	515	519	
14	0	0	0	0	518	523	
15	0	0	0	0	511	520	
0	0	0	0	0	508	519	
1	0	0	0	0	505	512	
2	0	0	0	0	514	505	
3	0	0	0	0	515	504	
4	0	0	0	0	504	503	
5	0	0	0	0	499	502	
6	0	0	0	0	497	500	
7	0	0	0	0	499	501	
8	0	0	0	0	503	507	
9	0	0	0	0	501	510	
10	0	0	0	0	493	512	
11	0	0	0	0	494	519	
12	0	0	0	0	506	514	
13	0	0	0	0	512	511	
14	0	0	0	0	522	508	
15	0	0	0	0	532	511	
0	0	0	0	0	524	507	
1	0	0	0	0	523	498	
2	0	0	0	0	522	495	
3	0	0	0	0	519	485	
4	0	0	0	0	516	490	
5	0	0	0	0	519	501	
6	0	0	0	0	508	515	
7	0	0	0	0	500	527	
8	0	0	0	0	496	536	
9	0	0	0	0	498	540	
10	0	0	0	0	504	541	
11	0	0	0	0	502	537	
12	0	0	0	0	504	535	
13	0	0	0	0	513	530	
14	0	0	0	0	527	521	
15	0	0	0	0	527	513	
0	0	0	0	0	524	505	
1	0	0	0	0	511	503	
2	0	0	0	0	500	502	
3	0	0	0	0	498	502	
4	0	0	0	0	495	503	
5	0	0	0	0	484	499	
6	0	0	0	0	487	497	
7	0	0	0	0	491	497	
8	0	0	0	0	504	502	
9	0	0	0	0	517	507	
10	0	0	0	0	532	508	
11	0	0	0	0	529	508	
12	0	0	0	0	523	510	
13	0	0	0	0	518	511	
14	0	0	0	0	515	514	
15	0	0	0	0	512	513	
0	0	0	0	0	509	507	
1	0	0	0	0	499	505	
2	0	0	0	0	494	505	
3	0	0	0	0	504	505	
4	0	0	0	0	517	507	
5	0	0	0	0	519	507	
6	0	0	0	0	523	506	
7	0	0	0	0	524	508	
8	0	0	0	0	521	508	
9	0	0	0	0	521	511	
10	0	0	0	0	517	510	
11	0	0	0	0	516	508	
12	0	0	0	0	518	510	
13	0	0	0	0	517	508	
14	0	0	0	0	518	506	
15	0	0	0	0	515	508	
0	0	0	0	0	508	510	
1	0	0	0	0	507	513	
2	0	0	0	0	507	513	
3	0	0	0	0	506	515	
4	0	0	0	0	506	516	
5	0	0	0	0	504	515	
6	0	0	0	0	503	515	
7	0	0	0	0	495	513	
8	0	0	0	0	503	512	
9	0	0	0	0	507	508	
10	0	0	0	0	507	505	
11	0	0	0	0	505	504	
12	0	0	0	0	507	505	
13	0	0	0	0	511	510	
14	0	0	0	0	511	512	
15	0	0	0	0	507	510	
0	0	0	0	0	511	512	
1	0	0	0	0	510	515	
2	0	0	0	0	510	518	
3	0	0	0	0	516	522	
4	0	0	0	0	519	521	
5	0	0	0	0	521	519	
6	0	0	0	0	519	510	
7	0	0	0	0	519	513	
8	0	0	0	0	513	511	
9	0	0	0	0	508	508	
10	0	0	0	0	507	509	
11	0	0	0	0	505	507	
12	0	0	0	0	507	507	
13	0	0	0	0	508	505	
14	0	0	0	0	506	505	
15	0	0	0	0	513	505	
0	0	0	0	0	519	501	
1	0	0	0	0	523	500	
2	0	0	0	0	517	504	
3	0	0	0	0	511	512	
4	0	0	0	0	508	516	
5	0	0	0	0	500	517	
6	0	0	0	0	497	518	
7	0	0	0	0	500	518	
8	0	0	0	0	500	523	
9	0	0	0	0	504	519	
10	0	0	0	0	513	515	
11	0	0	0	0	516	513	
12	0	0	0	0	516	510	
13	0	0	0	0	513	507	
14	0	0	0	0	513	506	
15	0	0	0	0	518	508	
0	0	0	0	0	520	507	
1	0	0	0	0	516	510	
2	0	0	0	0	512	505	
3	0	0	0	0	514	503	
4	0	0	0	0	511	496	
5	0	0	0	0	511	492	
6	0	0	0	0	512	491	
7	0	0	0	0	510	498	
8	0	0	0	0	512	506	
9	0	0	0	0	518	510	
10	0	0	0	0	516	516	
11	0	0	0	0	516	521	
12	0	0	0	0	509	524	
13	0	0	0	0	504	528	
14	0	0	0	0	499	531	
15	0	0	0	0	499	522	
0	0	0	0	0	497	515	
1	0	0	0	0	502	513	
2	0	0	0	0	505	513	
3	0	0	0	0	508	513	
4	0	0	0	0	510	510	
5	0	0	0	0	519	509	
6	0	0	0	0	518	503	
7	0	0	0	0	516	505	
8	0	0	0	0	512	508	
9	0	0	0	0	510	510	
10	0	0	0	0	509	512	
11	0	0	0	0	507	511	
12	0	0	0	0	506	510	
13	0	0	0	0	508	511	
14	0	0	0	0	510	510	
15	0	0	0	0	513	509	
0	0	0	0	0	511	494	
1	0	0	0	0	510	490	
2	0	0	0	0	510	487	
3	0	0	0	0	512	490	
4	0	0	0	0	513	498	
5	0	0	0	0	513	506	
6	0	0	0	0	518	516	
7	0	0	0	0	519	521	
8	0	0	0	0	522	529	
9	0	0	0	0	517	533	
10	0	0	0	0	514	530	
11	0	0	0	0	515	529	
12	0	0	0	0	508	524	
13	0	0	0	0	503	516	
14	0	0	0	0	502	512	
15	0	0	0	0	501	505	
0	0	0	0	0	499	504	
1	0	0	0	0	502	505	
2	0	0	0	0	506	505	
3	0	0	0	0	507	508	
4	0	0	0	0	511	507	
5	0	0	0	0	512	504	
6	0	0	0	0	516	502	
7	0	0	0	0	513	496	
8	0	0	0	0	511	491	
9	0	0	0	0	503	493	
10	0	0	0	0	502	506	
11	0	0	0	0	502	519	
12	0	0	0	0	502	525	
13	0	0	0	0	504	528	
14	0	0	0	0	513	527	
15	0	0	0	0	516	530	
0	0	0	0	0	516	530	
1	0	0	0	0	518	533	
2	0	0	0	0	518	526	
3	0	0	0	0	514	508	
4	0	0	0	0	510	505	
5	0	0	0	0	508	499	
6	0	0	0	0	508	497	
7	0	0	0	0	510	500	
8	0	0	0	0	511	498	
9	0	0	0	0	515	502	
10	0	0	0	0	517	504	
11	0	0	0	0	519	506	
12	0	0	0	0	516	505	
13	0	0	0	0	511	504	
14	0	0	0	0	512	500	
15	0	0	0	0	511	495	
0	0	0	0	0	511	495	
1	0	0	0	0	508	496	
2	0	0	0	0	505	493	
3	0	0	0	0	503	501	
4	0	0	0	0	510	509	
5	0	0	0	0	515	521	
6	0	0	0	0	518	528	
7	0	0	0	0	515	534	
8	0	0	0	0	512	534	
9	0	0	0	0	508	529	
10	0	0	0	0	507	530	
11	0	0	0	0	507	527	
12	0	0	0	0	505	510	
13	0	0	0	0	510	504	
14	0	0	0	0	510	505	
15	0	0	0	0	513	507	
0	0	0	0	0	514	508	
1	0	0	0	0	512	512	
2	0	0	0	0	505	513	
3	0	0	0	0	505	511	
4	0	0	0	0	507	512	
5	0	0	0	0	507	511	
6	0	0	0	0	505	509	
7	0	0	0	0	504	508	
8	0	0	0	0	510	504	
9	0	0	0	0	511	506	
10	0	0	0	0	510	507	
11	0	0	0	0	506	506	
12	0	0	0	0	506	499	
13	0	0	0	0	505	499	
14	0	0	0	0	512	500	
15	0	0	0	0	518	502	
0	0	0	0	0	516	504	
1	0	0	0	0	515	508	
2	0	0	0	0	513	508	
3	0	0	0	0	515	509	
4	0	0	0	0	513	513	
5	0	0	0	0	515	519	
6	0	0	0	0	511	512	
7	0	0	0	0	511	514	
8	0	0	0	0	509	518	
9	0	0	0	0	513	520	
10	0	0	0	0	516	518	
11	0	0	0	0	524	518	
12	0	0	0	0	525	515	
13	0	0	0	0	524	511	
14	0	0	0	0	522	508	
15	0	0	0	0	512	509	
0	0	0	0	0	506	511	
1	0	0	0	0	499	511	
2	0	0	0	0	494	511	
3	0	0	0	0	493	512	
4	0	0	0	0	492	514	
5	0	0	0	0	494	514	
6	0	0	0	0	500	515	
7	0	0	0	0	507	512	
8	0	0	0	0	516	514	
9	0	0	0	0	518	507	
10	0	0	0	0	521	504	
11	0	0	0	0	525	503	
12	0	0	0	0	521	504	
13	0	0	0	0	521	504	
14	0	0	0	0	514	504	
15	0	0	0	0	513	508	
0	0	0	0	0	512	502	
1	0	0	0	0	511	500	
2	0	0	0	0	509	501	
3	0	0	0	0	512	499	
4	0	0	0	0	509	499	
5	0	0	0	0	513	505	
6	0	0	0	0	515	512	
7	0	0	0	0	515	517	
8	0	0	0	0	507	514	
9	0	0	0	0	504	518	
10	0	0	0	0	499	524	
11	0	0	0	0	500	535	
12	0	0	0	0	495	536	
13	0	0	0	0	493	534	
14	0	0	0	0	497	529	
15	0	0	0	0	498	521	
0	0	0	0	0	505	516	
1	0	0	0	0	513	518	
2	0	0	0	0	513	512	
3	0	0	0	0	512	500	
4	0	0	0	0	514	495	
5	0	0	0	0	518	492	
6	0	0	0	0	519	496	
7	0	0	0	0	521	498	
8	0	0	0	0	518	498	
9	0	0	0	0	508	495	
10	0	0	0	0	507	498	
11	0	0	0	0	506	500	
12	0	0	0	0	511	502	
13	0	0	0	0	515	508	
14	0	0	0	0	518	503	
15	0	0	0	0	529	507	
0	0	0	0	0	534	518	
1	0	0	0	0	524	524	
2	0	0	0	0	516	530	
3	0	0	0	0	505	529	
4	0	0	0	0	500	524	
5	0	0	0	0	495	515	
6	0	0	0	0	494	517	
7	0	0	0	0	493	517	
8	0	0	0	0	485	511	
9	0	0	0	0	493	509	
10	0	0	0	0	508	507	
11	0	0	0	0	510	510	
12	0	0	0	0	507	511	
13	0	0	0	0	508	514	
14	0	0	0	0	512	511	
15	0	0	0	0	522	507	
0	0	0	0	0	537	505	
1	0	0	0	0	539	499	
2	0	0	0	0	532	499	
3	0	0	0	0	523	500	
4	0	0	0	0	518	504	
5	0	0	0	0	512	502	
6	0	0	0	0	513	504	
7	0	0	0	0	508	506	
8	0	0	0	0	501	510	
9	0	0	0	0	497	511	
10	0	0	0	0	504	514	
11	0	0	0	0	515	519	
12	0	0	0	0	518	518	
13	0	0	0	0	515	517	
14	0	0	0	0	510	517	
15	0	0	0	0	507	518	
0	0	0	0	0	515	514	
1	0	0	0	0	517	504	
2	0	0	0	0	509	491	
3	0	0	0	0	503	492	
4	0	0	0	0	496	496	
5	0	0	0	0	493	507	
6	0	0	0	0	500	515	
7	0	0	0	0	508	527	
8	0	0	0	0	510	522	
9	0	0	0	0	507	514	
10	0	0	0	0	498	524	
11	0	0	0	0	503	528	
12	0	0	0	0	511	522	
13	0	0	0	0	511	518	
14	0	0	0	0	505	513	
15	0	0	0	0	496	511	
0	0	0	0	0	504	511	
1	0	0	0	0	515	505	
2	0	0	0	0	519	495	
3	0	0	0	0	519	494	
4	0	0	0	0	525	497	
5	0	0	0	0	525	502	
6	0	0	0	0	528	503	
7	0	0	0	0	525	499	
8	0	0	0	0	520	497	
9	0	0	0	0	519	509	
10	0	0	0	0	524	516	
11	0	0	0	0	527	518	
12	0	0	0	0	519	518	
13	0	0	0	0	507	519	
14	0	0	0	0	505	522	
15	0	0	0	0	496	527	
0	0	0	0	0	492	531	
1	0	0	0	0	496	528	
2	0	0	0	0	502	515	
3	0	0	0	0	499	512	
4	0	0	0	0	495	511	
5	0	0	0	0	499	515	
6	0	0	0	0	505	516	
7	0	0	0	0	513	514	
8	0	0	0	0	512	508	
9	0	0	0	0	501	510	
10	0	0	0	0	497	504	
11	0	0	0	0	500	496	
12	0	0	0	0	508	496	
13	0	0	0	0	515	496	
14	0	0	0	0	521	500	
15	0	0	0	0	513	498	
0	0	0	0	0	505	493	
1	0	0	0	0	505	484	
2	0	0	0	0	508	491	
3	0	0	0	0	517	504	
4	0	0	0	0	526	517	
5	0	0	0	0	532	524	
6	0	0	0	0	536	524	
7	0	0	0	0	535	526	
8	0	0	0	0	527	526	
9	0	0	0	0	517	527	
10	0	0	0	0	508	524	
11	0	0	0	0	508	515	
12	0	0	0	0	505	513	
13	0	0	0	0	504	518	
14	0	0	0	0	498	516	
15	0	0	0	0	501	516	
0	0	0	0	0	507	514	
1	0	0	0	0	516	512	
2	0	0	0	0	517	511	
3	0	0	0	0	506	509	
4	0	0	0	0	502	506	
5	0	0	0	0	503	500	
6	0	0	0	0	508	500	
7	0	0	0	0	497	504	
8	0	0	0	0	496	505	
9	0	0	0	0	503	504	
10	0	0	0	0	507	504	
11	0	0	0	0	515	504	
12	0	0	0	0	516	505	
13	0	0	0	0	521	505	
14	0	0	0	0	526	499	
15	0	0	0	0	519	494	
0	0	0	0	0	515	497	
1	0	0	0	0	507	501	
2	0	0	0	0	500	507	
3	0	0	0	0	500	515	
4	0	0	0	0	505	522	
5	0	0	0	0	507	525	
6	0	0	0	0	509	524	
7	0	0	0	0	511	526	
8	0	0	0	0	515	524	
9	0	0	0	0	514	525	
10	0	0	0	0	526	521	
11	0	0	0	0	527	518	
12	0	0	0	0	524	511	
13	0	0	0	0	519	511	
14	0	0	0	0	519	511	
15	0	0	0	0	517	510	
0	0	0	0	0	515	508	
1	0	0	0	0	518	504	
2	0	0	0	0	513	503	
3	0	0	0	0	508	503	
4	0	0	0	0	504	501	
5	0	0	0	0	496	498	
6	0	0	0	0	494	497	
7	0	0	0	0	490	499	
8	0	0	0	0	494	500	
9	0	0	0	0	501	503	
10	0	0	0	0	508	511	
11	0	0	0	0	516	512	
12	0	0	0	0	513	514	
13	0	0	0	0	515	517	
14	0	0	0	0	520	514	
15	0	0	0	0	523	511	
0	0	0	0	0	523	514	
1	0	0	0	0	518	519	
2	0	0	0	0	512	521	
3	0	0	0	0	504	523	
4	0	0	0	0	502	525	
5	0	0	0	0	504	525	
6	0	0	0	0	506	522	
7	0	0	0	0	510	519	
8	0	0	0	0	512	521	
9	0	0	0	0	511	514	
10	0	0	0	0	508	506	
11	0	0	0	0	510	504	
12	0	0	0	0	504	499	
13	0	0	0	0	500	504	
14	0	0	0	0	498	503	
15	0	0	0	0	504	504	
0	0	0	0	0	509	502	
1	0	0	0	0	510	504	
2	0	0	0	0	512	504	
3	0	0	0	0	515	499	
4	0	0	0	0	518	499	
5	0	0	0	0	520	500	
6	0	0	0	0	518	503	
7	0	0	0	0	521	506	
8	0	0	0	0	521	509	
9	0	0	0	0	515	519	
10	0	0	0	0	509	521	
11	0	0	0	0	508	521	
12	0	0	0	0	505	523	
13	0	0	0	0	507	520	
14	0	0	0	0	511	517	
15	0	0	0	0	513	513	
0	0	0	0	0	510	503	
1	0	0	0	0	508	502	
2	0	0	0	0	507	502	
3	0	0	0	0	513	503	
4	0	0	0	0	511	507	
5	0	0	0	0	508	506	
6	0	0	0	0	510	506	
7	0	0	0	0	511	508	
8	0	0	0	0	515	512	
9	0	0	0	0	513	513	
10	0	0	0	0	513	512	
11	0	0	0	0	513	516	
12	0	0	0	0	510	521	
13	0	0	0	0	513	519	
14	0	0	0	0	512	521	
15	0	0	0	0	508	519	
0	0	0	0	0	511	516	
1	0	0	0	0	512	514	
2	0	0	0	0	514	515	
3	0	0	0	0	511	513	
4	0	0	0	0	508	509	
5	0	0	0	0	508	509	
6	0	0	0	0	505	504	
7	0	0	0	0	507	503	
8	0	0	0	0	511	507	
9	0	0	0	0	508	512	
10	0	0	0	0	508	512	
11	0	0	0	0	509	510	
12	0	0	0	0	506	506	
13	0	0	0	0	510	505	
14	0	0	0	0	511	500	
15	0	0	0	0	510	503	
0	0	0	0	0	512	509	
1	0	0	0	0	515	512	
2	0	0	0	0	512	512	
3	0	0	0	0	512	512	
4	0	0	0	0	514	513	
5	0	0	0	0	513	515	
6	0	0	0	0	511	518	
7	0	0	0	0	508	516	
8	0	0	0	0	512	512	
9	0	0	0	0	509	511	
10	0	0	0	0	511	508	
11	0	0	0	0	509	507	
12	0	0	0	0	508	507	
13	0	0	0	0	511	505	
14	0	0	0	0	508	502	
15	0	0	0	0	510	506	
0	0	0	0	0	512	506	
1	0	0	0	0	514	508	
2	0	0	0	0	512	510	
3	0	0	0	0	515	509	
4	0	0	0	0	514	506	
5	0	0	0	0	510	507	
6	0	0	0	0	513	513	
7	0	0	0	0	515	521	
8	0	0	0	0	519	521	
9	0	0	0	0	515	516	
10	0	0	0	0	512	512	
11	0	0	0	0	515	516	
12	0	0	0	0	511	521	
13	0	0	0	0	511	524	
14	0	0	0	0	508	520	
15	0	0	0	0	505	515	
0	0	0	0	0	499	512	
1	0	0	0	0	496	511	
2	0	0	0	0	499	509	
3	0	0	0	0	502	502	
4	0	0	0	0	498	500	
5	0	0	0	0	496	503	
6	0	0	0	0	500	502	
7	0	0	0	0	505	504	
8	0	0	0	0	509	513	
9	0	0	0	0	513	519	
10	0	0	0	0	524	517	
11	0	0	0	0	530	516	
12	0	0	0	0	528	517	
13	0	0	0	0	527	512	
14	0	0	0	0	523	508	
15	0	0	0	0	518	507	
0	0	0	0	0	514	504	
1	0	0	0	0	510	501	
2	0	0	0	0	506	502	
3	0	0	0	0	506	502	
4	0	0	0	0	502	502	
5	0	0	0	0	504	505	
6	0	0	0	0	504	508	
7	0	0	0	0	506	507	
8	0	0	0	0	507	508	
9	0	0	0	0	515	505	
10	0	0	0	0	513	506	
11	0	0	0	0	512	503	
12	0	0	0	0	511	507	
13	0	0	0	0	508	509	
14	0	0	0	0	506	509	
15	0	0	0	0	503	507	
0	0	0	0	0	501	504	
1	0	0	0	0	504	504	
2	0	0	0	0	508	505	
3	0	0	0	0	513	509	
4	0	0	0	0	513	511	
5	0	0	0	0	517	510	
6	0	0	0	0	519	508	
7	0	0	0	0	523	510	
8	0	0	0	0	527	511	
9	0	0	0	0	526	519	
10	0	0	0	0	512	522	
11	0	0	0	0	509	526	
12	0	0	0	0	504	523	
13	0	0	0	0	503	522	
14	0	0	0	0	501	520	
15	0	0	0	0	501	517	
0	0	0	0	0	504	513	
1	0	0	0	0	504	511	
2	0	0	0	0	505	510	
3	0	0	0	0	507	499	
4	0	0	0	0	508	502	
5	0	0	0	0	515	504	
6	0	0	0	0	515	503	
7	0	0	0	0	511	508	
8	0	0	0	0	514	504	
9	0	0	0	0	512	504	
10	0	0	0	0	511	509	
11	0	0	0	0	511	517	
12	0	0	0	0	512	526	
13	0	0	0	0	512	528	
14	0	0	0	0	518	535	
15	0	0	0	0	521	532	
0	0	0	0	0	513	527	
1	0	0	0	0	508	520	
2	0	0	0	0	507	512	
3	0	0	0	0	507	507	
4	0	0	0	0	499	499	
5	0	0	0	0	498	497	
6	0	0	0	0	501	499	
7	0	0	0	0	508	499	
8	0	0	0	0	514	502	
9	0	0	0	0	517	506	
10	0	0	0	0	517	509	
11	0	0	0	0	518	511	
12	0	0	0	0	519	508	
13	0	0	0	0	515	511	
14	0	0	0	0	515	511	
15	0	0	0	0	509	505	
0	0	0	0	0	507	507	
1	0	0	0	0	508	502	
2	0	0	0	0	511	502	
3	0	0	0	0	512	497	
4	0	0	0	0	508	496	
5	0	0	0	0	509	502	
6	0	0	0	0	513	507	
7	0	0	0	0	515	513	
8	0	0	0	0	513	519	
9	0	0	0	0	507	522	
10	0	0	0	0	507	524	
11	0	0	0	0	503	525	
12	0	0	0	0	505	523	
13	0	0	0	0	504	517	
14	0	0	0	0	499	511	
15	0	0	0	0	501	505	
0	0	0	0	0	503	504	
1	0	0	0	0	512	504	
2	0	0	0	0	514	504	
3	0	0	0	0	519	502	
4	0	0	0	0	522	506	
5	0	0	0	0	517	508	
6	0	0	0	0	516	513	
7	0	0	0	0	512	518	
8	0	0	0	0	510	517	
9	0	0	0	0	509	513	
10	0	0	0	0	507	502	
11	0	0	0	0	506	500	
12	0	0	0	0	510	502	
13	0	0	0	0	519	509	
14	0	0	0	0	521	514	
15	0	0	0	0	526	515	
0	0	0	0	0	530	518	
1	0	0	0	0	527	520	
2	0	0	0	0	518	520	
3	0	0	0	0	515	513	
4	0	0	0	0	514	499	
5	0	0	0	0	514	495	
6	0	0	0	0	508	503	
7	0	0	0	0	496	508	
8	0	0	0	0	485	516	
9	0	0	0	0	479	519	
10	0	0	0	0	483	518	
11	0	0	0	0	494	514	
12	0	0	0	0	497	515	
13	0	0	0	0	502	515	
14	0	0	0	0	504	511	
15	0	0	0	0	512	503	
0	0	0	0	0	524	499	
1	0	0	0	0	528	500	
2	0	0	0	0	524	508	
3	0	0	0	0	523	519	
4	0	0	0	0	515	524	
5	0	0	0	0	511	525	
6	0	0	0	0	505	518	
7	0	0	0	0	507	514	
8	0	0	0	0	510	516	
9	0	0	0	0	513	518	
10	0	0	0	0	519	518	
11	0	0	0	0	528	514	
12	0	0	0	0	534	509	
13	0	0	0	0	534	506	
14	0	0	0	0	527	504	
15	0	0	0	0	515	506	
0	0	0	0	0	505	507	
1	0	0	0	0	498	507	
2	0	0	0	0	492	508	
3	0	0	0	0	489	509	
4	0	0	0	0	488	512	
5	0	0	0	0	486	508	
6	0	0	0	0	495	508	
7	0	0	0	0	507	507	
8	0	0	0	0	516	510	
9	0	0	0	0	515	507	
10	0	0	0	0	517	505	
11	0	0	0	0	524	500	
12	0	0	0	0	520	495	
13	0	0	0	0	517	498	
14	0	0	0	0	512	505	
15	0	0	0	0	507	514	
0	0	0	0	0	504	518	
1	0	0	0	0	507	511	
2	0	0	0	0	512	513	
3	0	0	0	0	518	513	
4	0	0	0	0	519	513	
5	0	0	0	0	515	517	
6	0	0	0	0	518	514	
7	0	0	0	0	523	513	
8	0	0	0	0	519	506	
9	0	0	0	0	521	507	
10	0	0	0	0	517	511	
11	0	0	0	0	509	518	
12	0	0	0	0	510	517	
13	0	0	0	0	511	516	
14	0	0	0	0	512	516	
15	0	0	0	0	507	519	
0	0	0	0	0	497	518	
1	0	0	0	0	490	519	
2	0	0	0	0	495	513	
3	0	0	0	0	498	512	
4	0	0	0	0	502	512	
5	0	0	0	0	500	507	
6	0	0	0	0	494	509	
7	0	0	0	0	498	508	
8	0	0	0	0	510	507	
9	0	0	0	0	515	506	
10	0	0	0	0	516	506	
11	0	0	0	0	506	504	
12	0	0	0	0	514	506	
13	0	0	0	0	521	507	
14	0	0	0	0	525	507	
15	0	0	0	0	528	509	
0	0	0	0	0	532	510	
1	0	0	0	0	529	512	
2	0	0	0	0	523	510	
3	0	0	0	0	516	505	
4	0	0	0	0	512	505	
5	0	0	0	0	511	504	
6	0	0	0	0	509	494	
7	0	0	0	0	505	489	
8	0	0	0	0	493	488	
9	0	0	0	0	486	495	
10	0	0	0	0	491	504	
11	0	0	0	0	506	516	
12	0	0	0	0	513	517	
13	0	0	0	0	513	518	
14	0	0	0	0	516	519	
15	0	0	0	0	515	528	
0	0	0	0	0	505	533	
1	0	0	0	0	505	530	
2	0	0	0	0	515	531	
3	0	0	0	0	516	529	
4	0	0	0	0	521	525	
5	0	0	0	0	527	520	
6	0	0	0	0	523	515	
7	0	0	0	0	512	508	
8	0	0	0	0	504	498	
9	0	0	0	0	492	496	
10	0	0	0	0	491	503	
11	0	0	0	0	503	508	
12	0	0	0	0	499	516	
13	0	0	0	0	501	517	
14	0	0	0	0	502	517	
15	0	0	0	0	507	519	
0	0	0	0	0	505	519	
1	0	0	0	0	507	515	
2	0	0	0	0	507	509	
3	0	0	0	0	505	504	
4	0	0	0	0	505	502	
5	0	0	0	0	509	502	
6	0	0	0	0	515	505	
7	0	0	0	0	519	506	
8	0	0	0	0	523	505	
9	0	0	0	0	521	504	
10	0	0	0	0	520	501	
11	0	0	0	0	521	500	
12	0	0	0	0	519	496	
13	0	0	0	0	518	499	
14	0	0	0	0	516	502	
15	0	0	0	0	516	504	
0	0	0	0	0	513	504	
1	0	0	0	0	512	503	
2	0	0	0	0	514	508	
3	0	0	0	0	519	516	
4	0	0	0	0	515	520	
5	0	0	0	0	515	521	
6	0	0	0	0	516	517	
7	0	0	0	0	523	520	
8	0	0	0	0	515	514	
9	0	0	0	0	510	518	
10	0	0	0	0	501	520	
11	0	0	0	0	494	522	
12	0	0	0	0	489	521	
13	0	0	0	0	493	515	
14	0	0	0	0	500	510	
15	0	0	0	0	497	503	
0	0	0	0	0	491	499	
1	0	0	0	0	500	499	
2	0	0	0	0	510	499	
3	0	0	0	0	518	502	
4	0	0	0	0	517	508	
5	0	0	0	0	517	511	
6	0	0	0	0	519	516	
7	0	0	0	0	516	512	
8	0	0	0	0	518	512	
9	0	0	0	0	518	511	
10	0	0	0	0	513	506	
11	0	0	0	0	513	504	
12	0	0	0	0	513	508	
13	0	0	0	0	515	512	
14	0	0	0	0	518	513	
15	0	0	0	0	512	511	
0	0	0	0	0	510	515	
1	0	0	0	0	516	513	
2	0	0	0	0	512	515	
3	0	0	0	0	503	516	
4	0	0	0	0	497	517	
5	0	0	0	0	499	516	
6	0	0	0	0	496	513	
7	0	0	0	0	504	509	
8	0	0	0	0	512	510	
9	0	0	0	0	509	510	
10	0	0	0	0	507	503	
11	0	0	0	0	511	504	
12	0	0	0	0	515	506	
13	0	0	0	0	523	509	
14	0	0	0	0	521	506	
15	0	0	0	0	514	509	
0	0	0	0	0	512	511	
1	0	0	0	0	509	512	
2	0	0	0	0	515	508	
3	0	0	0	0	527	504	
