# OpenSignals Text File Format. Version 1
# {"98:D3:11:FE:05:A2": {"position": 0, "device": "bitalino_rev", "device name": "98:D3:11:FE:05:A2", "device connection": "BTH98:D3:11:FE:05:A2", "sampling rate": 1000, "resolution": [4, 1, 1, 1, 1, 10, 10], "firmware version": 1282, "comments": "Intervalo extra\u00eddo: 0.0-45.0s. Original: basal_trapecio_ren.txt", "keywords": "", "mode": 0, "sync interval": 2, "date": "2026-6-12", "time": "15:19:23.387", "channels": [1, 2], "sensor": ["EMGBITREV", "EMGBITREV"], "label": ["A1", "A2"], "column": ["nSeq", "I1", "I2", "O1", "O2", "A1", "A2"], "special": [{}, {}], "digital IO": [0, 0, 1, 1]}}
# EndOfHeader
0	0	0	0	0	507	508
1	0	0	0	0	508	508
2	0	0	0	0	507	506
3	0	0	0	0	506	508
4	0	0	0	0	507	505
5	0	0	0	0	506	510
6	0	0	0	0	507	504
7	0	0	0	0	509	504
8	0	0	0	0	505	504
9	0	0	0	0	506	507
10	0	0	0	0	507	505
11	0	0	0	0	506	506
12	0	0	0	0	504	509
13	0	0	0	0	506	505
14	0	0	0	0	508	505
15	0	0	0	0	508	506
16	0	0	0	0	508	505
17	0	0	0	0	507	507
18	0	0	0	0	507	504
19	0	0	0	0	506	505
20	0	0	0	0	510	504
21	0	0	0	0	507	505
22	0	0	0	0	509	505
23	0	0	0	0	508	508
24	0	0	0	0	508	506
25	0	0	0	0	507	506
26	0	0	0	0	508	509
27	0	0	0	0	506	508
28	0	0	0	0	505	508
29	0	0	0	0	506	508
30	0	0	0	0	509	507
31	0	0	0	0	505	507
32	0	0	0	0	507	508
33	0	0	0	0	507	508
34	0	0	0	0	506	508
35	0	0	0	0	507	510
36	0	0	0	0	506	509
37	0	0	0	0	506	512
38	0	0	0	0	507	512
39	0	0	0	0	507	510
40	0	0	0	0	507	510
41	0	0	0	0	507	510
42	0	0	0	0	507	510
43	0	0	0	0	507	511
44	0	0	0	0	505	508
45	0	0	0	0	505	510
46	0	0	0	0	507	510
47	0	0	0	0	506	509
48	0	0	0	0	507	510
49	0	0	0	0	506	510
50	0	0	0	0	505	509
51	0	0	0	0	508	508
52	0	0	0	0	505	508
53	0	0	0	0	506	507
54	0	0	0	0	505	506
55	0	0	0	0	508	504
56	0	0	0	0	506	507
57	0	0	0	0	508	505
58	0	0	0	0	507	502
59	0	0	0	0	506	503
60	0	0	0	0	508	503
61	0	0	0	0	508	505
62	0	0	0	0	507	505
63	0	0	0	0	507	505
64	0	0	0	0	507	504
65	0	0	0	0	506	507
66	0	0	0	0	509	505
67	0	0	0	0	507	506
68	0	0	0	0	508	506
69	0	0	0	0	507	507
70	0	0	0	0	508	505
71	0	0	0	0	507	505
72	0	0	0	0	505	505
73	0	0	0	0	504	505
74	0	0	0	0	507	505
75	0	0	0	0	507	504
76	0	0	0	0	507	505
77	0	0	0	0	508	507
78	0	0	0	0	507	506
79	0	0	0	0	505	508
80	0	0	0	0	508	506
81	0	0	0	0	507	507
82	0	0	0	0	508	506
83	0	0	0	0	508	509
84	0	0	0	0	507	508
85	0	0	0	0	508	508
86	0	0	0	0	506	506
87	0	0	0	0	507	506
88	0	0	0	0	506	507
89	0	0	0	0	508	508
90	0	0	0	0	506	509
91	0	0	0	0	507	507
92	0	0	0	0	507	508
93	0	0	0	0	508	507
94	0	0	0	0	507	506
95	0	0	0	0	507	507
96	0	0	0	0	508	505
97	0	0	0	0	508	509
98	0	0	0	0	508	505
99	0	0	0	0	510	506
100	0	0	0	0	508	507
101	0	0	0	0	507	506
102	0	0	0	0	505	507
103	0	0	0	0	506	508
104	0	0	0	0	505	509
105	0	0	0	0	506	508
106	0	0	0	0	507	507
107	0	0	0	0	507	507
108	0	0	0	0	508	508
109	0	0	0	0	508	508
110	0	0	0	0	507	505
111	0	0	0	0	507	507
112	0	0	0	0	505	504
113	0	0	0	0	507	507
114	0	0	0	0	506	504
115	0	0	0	0	506	508
116	0	0	0	0	507	507
117	0	0	0	0	507	507
118	0	0	0	0	507	508
119	0	0	0	0	507	508
120	0	0	0	0	508	507
121	0	0	0	0	508	506
122	0	0	0	0	507	509
123	0	0	0	0	505	507
124	0	0	0	0	507	506
125	0	0	0	0	507	507
126	0	0	0	0	506	505
127	0	0	0	0	508	507
128	0	0	0	0	507	508
129	0	0	0	0	505	507
130	0	0	0	0	507	508
131	0	0	0	0	507	505
132	0	0	0	0	507	506
133	0	0	0	0	508	508
134	0	0	0	0	509	507
135	0	0	0	0	507	507
136	0	0	0	0	510	506
137	0	0	0	0	508	506
138	0	0	0	0	506	507
139	0	0	0	0	507	505
140	0	0	0	0	506	507
141	0	0	0	0	507	505
142	0	0	0	0	507	507
143	0	0	0	0	506	507
144	0	0	0	0	507	505
145	0	0	0	0	505	508
146	0	0	0	0	508	508
147	0	0	0	0	508	508
148	0	0	0	0	508	506
149	0	0	0	0	510	509
150	0	0	0	0	508	507
151	0	0	0	0	506	505
152	0	0	0	0	506	508
153	0	0	0	0	508	508
154	0	0	0	0	507	505
155	0	0	0	0	506	505
156	0	0	0	0	504	507
157	0	0	0	0	506	506
158	0	0	0	0	506	507
159	0	0	0	0	508	508
160	0	0	0	0	506	507
161	0	0	0	0	505	506
162	0	0	0	0	507	507
163	0	0	0	0	506	507
164	0	0	0	0	505	507
165	0	0	0	0	507	506
166	0	0	0	0	508	504
167	0	0	0	0	505	508
168	0	0	0	0	508	507
169	0	0	0	0	507	507
170	0	0	0	0	507	509
171	0	0	0	0	507	509
172	0	0	0	0	507	506
173	0	0	0	0	508	507
174	0	0	0	0	507	507
175	0	0	0	0	506	505
176	0	0	0	0	508	505
177	0	0	0	0	508	506
178	0	0	0	0	504	508
179	0	0	0	0	508	508
180	0	0	0	0	507	506
181	0	0	0	0	508	507
182	0	0	0	0	507	509
183	0	0	0	0	507	510
184	0	0	0	0	505	505
185	0	0	0	0	507	505
186	0	0	0	0	506	507
187	0	0	0	0	506	508
188	0	0	0	0	509	507
189	0	0	0	0	507	508
190	0	0	0	0	507	506
191	0	0	0	0	507	509
192	0	0	0	0	507	505
193	0	0	0	0	508	507
194	0	0	0	0	508	507
195	0	0	0	0	506	506
196	0	0	0	0	507	507
197	0	0	0	0	507	506
198	0	0	0	0	508	507
199	0	0	0	0	506	508
200	0	0	0	0	508	505
201	0	0	0	0	507	505
202	0	0	0	0	508	508
203	0	0	0	0	508	506
204	0	0	0	0	505	507
205	0	0	0	0	507	507
206	0	0	0	0	507	507
207	0	0	0	0	507	507
208	0	0	0	0	509	507
209	0	0	0	0	508	506
210	0	0	0	0	506	508
211	0	0	0	0	507	507
212	0	0	0	0	508	507
213	0	0	0	0	505	505
214	0	0	0	0	507	508
215	0	0	0	0	508	508
216	0	0	0	0	505	506
217	0	0	0	0	507	506
218	0	0	0	0	506	505
219	0	0	0	0	506	507
220	0	0	0	0	506	508
221	0	0	0	0	507	507
222	0	0	0	0	505	507
223	0	0	0	0	506	507
224	0	0	0	0	507	507
225	0	0	0	0	506	506
226	0	0	0	0	507	507
227	0	0	0	0	507	506
228	0	0	0	0	508	504
229	0	0	0	0	507	507
230	0	0	0	0	507	504
231	0	0	0	0	508	509
232	0	0	0	0	507	509
233	0	0	0	0	507	508
234	0	0	0	0	508	507
235	0	0	0	0	508	508
236	0	0	0	0	507	507
237	0	0	0	0	508	507
238	0	0	0	0	508	508
239	0	0	0	0	508	505
240	0	0	0	0	505	508
241	0	0	0	0	506	507
242	0	0	0	0	506	506
243	0	0	0	0	507	507
244	0	0	0	0	506	507
245	0	0	0	0	508	507
246	0	0	0	0	508	505
247	0	0	0	0	505	508
248	0	0	0	0	507	507
249	0	0	0	0	507	509
250	0	0	0	0	507	509
251	0	0	0	0	509	507
252	0	0	0	0	508	505
253	0	0	0	0	506	507
254	0	0	0	0	506	507
255	0	0	0	0	506	505
256	0	0	0	0	507	507
257	0	0	0	0	507	507
258	0	0	0	0	510	507
259	0	0	0	0	504	506
260	0	0	0	0	505	508
261	0	0	0	0	509	507
262	0	0	0	0	509	508
263	0	0	0	0	510	505
264	0	0	0	0	507	505
265	0	0	0	0	506	508
266	0	0	0	0	504	508
267	0	0	0	0	507	507
268	0	0	0	0	505	508
269	0	0	0	0	508	507
270	0	0	0	0	505	507
271	0	0	0	0	506	508
272	0	0	0	0	508	506
273	0	0	0	0	507	508
274	0	0	0	0	508	507
275	0	0	0	0	509	505
276	0	0	0	0	507	506
277	0	0	0	0	506	507
278	0	0	0	0	507	507
279	0	0	0	0	507	507
280	0	0	0	0	508	506
281	0	0	0	0	506	507
282	0	0	0	0	505	505
283	0	0	0	0	506	508
284	0	0	0	0	507	509
285	0	0	0	0	507	507
286	0	0	0	0	507	506
287	0	0	0	0	506	505
288	0	0	0	0	507	506
289	0	0	0	0	507	507
290	0	0	0	0	507	507
291	0	0	0	0	509	505
292	0	0	0	0	508	507
293	0	0	0	0	508	507
294	0	0	0	0	508	508
295	0	0	0	0	505	508
296	0	0	0	0	507	508
297	0	0	0	0	506	508
298	0	0	0	0	508	507
299	0	0	0	0	507	507
300	0	0	0	0	507	507
301	0	0	0	0	506	507
302	0	0	0	0	505	509
303	0	0	0	0	506	508
304	0	0	0	0	507	507
305	0	0	0	0	507	507
306	0	0	0	0	507	507
307	0	0	0	0	506	508
308	0	0	0	0	507	507
309	0	0	0	0	507	507
310	0	0	0	0	507	505
311	0	0	0	0	507	508
312	0	0	0	0	507	508
313	0	0	0	0	506	509
314	0	0	0	0	507	507
315	0	0	0	0	507	506
316	0	0	0	0	506	507
317	0	0	0	0	507	506
318	0	0	0	0	508	507
319	0	0	0	0	508	508
320	0	0	0	0	508	506
321	0	0	0	0	508	506
322	0	0	0	0	505	507
323	0	0	0	0	507	508
324	0	0	0	0	505	506
325	0	0	0	0	507	507
326	0	0	0	0	509	506
327	0	0	0	0	508	507
328	0	0	0	0	506	508
329	0	0	0	0	508	507
330	0	0	0	0	506	507
331	0	0	0	0	507	506
332	0	0	0	0	507	506
333	0	0	0	0	505	508
334	0	0	0	0	508	505
335	0	0	0	0	508	506
336	0	0	0	0	507	507
337	0	0	0	0	507	506
338	0	0	0	0	507	508
339	0	0	0	0	506	507
340	0	0	0	0	506	507
341	0	0	0	0	508	505
342	0	0	0	0	505	506
343	0	0	0	0	507	507
344	0	0	0	0	506	506
345	0	0	0	0	508	507
346	0	0	0	0	508	506
347	0	0	0	0	508	505
348	0	0	0	0	507	507
349	0	0	0	0	508	507
350	0	0	0	0	507	507
351	0	0	0	0	508	505
352	0	0	0	0	507	508
353	0	0	0	0	507	507
354	0	0	0	0	505	509
355	0	0	0	0	507	507
356	0	0	0	0	508	507
357	0	0	0	0	507	507
358	0	0	0	0	507	505
359	0	0	0	0	506	506
360	0	0	0	0	504	508
361	0	0	0	0	507	507
362	0	0	0	0	506	507
363	0	0	0	0	505	505
364	0	0	0	0	507	507
365	0	0	0	0	509	508
366	0	0	0	0	508	508
367	0	0	0	0	507	508
368	0	0	0	0	508	508
369	0	0	0	0	505	506
370	0	0	0	0	507	505
371	0	0	0	0	507	504
372	0	0	0	0	507	505
373	0	0	0	0	506	507
374	0	0	0	0	507	507
375	0	0	0	0	506	508
376	0	0	0	0	505	507
377	0	0	0	0	506	507
378	0	0	0	0	509	508
379	0	0	0	0	508	505
380	0	0	0	0	506	507
381	0	0	0	0	508	505
382	0	0	0	0	506	506
383	0	0	0	0	507	509
384	0	0	0	0	507	509
385	0	0	0	0	508	507
386	0	0	0	0	508	507
387	0	0	0	0	505	507
388	0	0	0	0	507	506
389	0	0	0	0	505	507
390	0	0	0	0	506	505
391	0	0	0	0	507	507
392	0	0	0	0	507	507
393	0	0	0	0	508	506
394	0	0	0	0	508	507
395	0	0	0	0	506	505
396	0	0	0	0	508	506
397	0	0	0	0	509	507
398	0	0	0	0	508	506
399	0	0	0	0	506	507
400	0	0	0	0	508	508
401	0	0	0	0	505	508
402	0	0	0	0	507	506
403	0	0	0	0	507	508
404	0	0	0	0	507	507
405	0	0	0	0	506	508
406	0	0	0	0	507	507
407	0	0	0	0	506	508
408	0	0	0	0	506	508
409	0	0	0	0	507	507
410	0	0	0	0	507	505
411	0	0	0	0	508	505
412	0	0	0	0	508	507
413	0	0	0	0	508	507
414	0	0	0	0	506	507
415	0	0	0	0	506	507
416	0	0	0	0	508	506
417	0	0	0	0	505	506
418	0	0	0	0	508	508
419	0	0	0	0	507	507
420	0	0	0	0	505	510
421	0	0	0	0	505	508
422	0	0	0	0	507	507
423	0	0	0	0	507	505
424	0	0	0	0	505	505
425	0	0	0	0	507	506
426	0	0	0	0	508	509
427	0	0	0	0	506	506
428	0	0	0	0	507	505
429	0	0	0	0	505	508
430	0	0	0	0	506	508
431	0	0	0	0	509	508
432	0	0	0	0	505	505
433	0	0	0	0	507	507
434	0	0	0	0	508	508
435	0	0	0	0	508	507
436	0	0	0	0	508	507
437	0	0	0	0	507	508
438	0	0	0	0	505	506
439	0	0	0	0	504	506
440	0	0	0	0	507	509
441	0	0	0	0	508	506
442	0	0	0	0	506	507
443	0	0	0	0	507	508
444	0	0	0	0	506	507
445	0	0	0	0	509	508
446	0	0	0	0	508	507
447	0	0	0	0	504	508
448	0	0	0	0	506	508
449	0	0	0	0	505	508
450	0	0	0	0	507	506
451	0	0	0	0	505	508
452	0	0	0	0	507	508
453	0	0	0	0	508	507
454	0	0	0	0	508	506
455	0	0	0	0	506	505
456	0	0	0	0	510	507
457	0	0	0	0	508	507
458	0	0	0	0	507	508
459	0	0	0	0	508	507
460	0	0	0	0	508	507
461	0	0	0	0	508	510
462	0	0	0	0	506	508
463	0	0	0	0	507	508
464	0	0	0	0	506	507
465	0	0	0	0	506	506
466	0	0	0	0	507	507
467	0	0	0	0	505	505
468	0	0	0	0	506	508
469	0	0	0	0	506	507
470	0	0	0	0	506	505
471	0	0	0	0	505	506
472	0	0	0	0	504	507
473	0	0	0	0	507	507
474	0	0	0	0	507	507
475	0	0	0	0	508	507
476	0	0	0	0	507	506
477	0	0	0	0	508	507
478	0	0	0	0	508	506
479	0	0	0	0	507	507
480	0	0	0	0	508	507
481	0	0	0	0	506	507
482	0	0	0	0	507	506
483	0	0	0	0	506	506
484	0	0	0	0	507	509
485	0	0	0	0	508	507
486	0	0	0	0	506	508
487	0	0	0	0	506	505
488	0	0	0	0	507	506
489	0	0	0	0	507	509
490	0	0	0	0	509	508
491	0	0	0	0	508	507
492	0	0	0	0	507	506
493	0	0	0	0	507	507
494	0	0	0	0	507	507
495	0	0	0	0	507	507
496	0	0	0	0	508	505
497	0	0	0	0	508	507
498	0	0	0	0	509	507
499	0	0	0	0	507	508
500	0	0	0	0	506	507
501	0	0	0	0	508	508
502	0	0	0	0	506	508
503	0	0	0	0	506	507
504	0	0	0	0	505	509
505	0	0	0	0	507	508
506	0	0	0	0	507	507
507	0	0	0	0	505	505
508	0	0	0	0	509	507
509	0	0	0	0	508	506
510	0	0	0	0	507	508
511	0	0	0	0	506	509
512	0	0	0	0	507	508
513	0	0	0	0	504	506
514	0	0	0	0	504	505
515	0	0	0	0	508	508
516	0	0	0	0	505	506
517	0	0	0	0	506	506
518	0	0	0	0	506	506
519	0	0	0	0	507	508
520	0	0	0	0	505	507
521	0	0	0	0	509	505
522	0	0	0	0	506	508
523	0	0	0	0	505	506
524	0	0	0	0	507	507
525	0	0	0	0	507	506
526	0	0	0	0	506	507
527	0	0	0	0	508	507
528	0	0	0	0	506	507
529	0	0	0	0	506	508
530	0	0	0	0	506	508
531	0	0	0	0	508	506
532	0	0	0	0	508	505
533	0	0	0	0	507	505
534	0	0	0	0	506	508
535	0	0	0	0	507	507
536	0	0	0	0	507	507
537	0	0	0	0	507	507
538	0	0	0	0	509	505
539	0	0	0	0	508	505
540	0	0	0	0	506	506
541	0	0	0	0	507	507
542	0	0	0	0	507	505
543	0	0	0	0	508	508
544	0	0	0	0	506	507
545	0	0	0	0	506	504
546	0	0	0	0	507	510
547	0	0	0	0	508	506
548	0	0	0	0	505	507
549	0	0	0	0	508	506
550	0	0	0	0	508	505
551	0	0	0	0	507	508
552	0	0	0	0	508	509
553	0	0	0	0	508	508
554	0	0	0	0	506	508
555	0	0	0	0	507	508
556	0	0	0	0	506	509
557	0	0	0	0	508	505
558	0	0	0	0	508	506
559	0	0	0	0	507	506
560	0	0	0	0	506	507
561	0	0	0	0	507	507
562	0	0	0	0	505	506
563	0	0	0	0	509	507
564	0	0	0	0	509	507
565	0	0	0	0	509	509
566	0	0	0	0	504	505
567	0	0	0	0	508	507
568	0	0	0	0	507	508
569	0	0	0	0	505	505
570	0	0	0	0	508	508
571	0	0	0	0	507	505
572	0	0	0	0	506	506
573	0	0	0	0	506	507
574	0	0	0	0	505	506
575	0	0	0	0	507	507
576	0	0	0	0	507	506
577	0	0	0	0	507	507
578	0	0	0	0	508	506
579	0	0	0	0	509	508
580	0	0	0	0	507	508
581	0	0	0	0	507	508
582	0	0	0	0	507	508
583	0	0	0	0	505	507
584	0	0	0	0	508	507
585	0	0	0	0	507	508
586	0	0	0	0	505	508
587	0	0	0	0	507	508
588	0	0	0	0	507	507
589	0	0	0	0	506	505
590	0	0	0	0	506	507
591	0	0	0	0	507	508
592	0	0	0	0	508	508
593	0	0	0	0	507	508
594	0	0	0	0	506	507
595	0	0	0	0	507	507
596	0	0	0	0	506	508
597	0	0	0	0	508	508
598	0	0	0	0	509	509
599	0	0	0	0	507	506
600	0	0	0	0	506	505
601	0	0	0	0	508	505
602	0	0	0	0	507	507
603	0	0	0	0	508	507
604	0	0	0	0	507	505
605	0	0	0	0	507	504
606	0	0	0	0	507	504
607	0	0	0	0	505	507
608	0	0	0	0	505	504
609	0	0	0	0	505	504
610	0	0	0	0	507	506
611	0	0	0	0	507	505
612	0	0	0	0	508	507
613	0	0	0	0	507	505
614	0	0	0	0	508	506
615	0	0	0	0	507	506
616	0	0	0	0	506	505
617	0	0	0	0	508	505
618	0	0	0	0	507	507
619	0	0	0	0	506	508
620	0	0	0	0	508	507
621	0	0	0	0	508	508
622	0	0	0	0	508	505
623	0	0	0	0	508	507
624	0	0	0	0	508	507
625	0	0	0	0	507	507
626	0	0	0	0	506	508
627	0	0	0	0	507	506
628	0	0	0	0	506	508
629	0	0	0	0	507	511
630	0	0	0	0	508	509
631	0	0	0	0	504	512
632	0	0	0	0	505	511
633	0	0	0	0	507	511
634	0	0	0	0	508	511
635	0	0	0	0	508	511
636	0	0	0	0	505	509
637	0	0	0	0	508	511
638	0	0	0	0	508	510
639	0	0	0	0	507	509
640	0	0	0	0	507	510
641	0	0	0	0	507	512
642	0	0	0	0	507	508
643	0	0	0	0	508	510
644	0	0	0	0	506	505
645	0	0	0	0	504	507
646	0	0	0	0	507	508
647	0	0	0	0	507	507
648	0	0	0	0	509	507
649	0	0	0	0	507	506
650	0	0	0	0	507	504
651	0	0	0	0	508	504
652	0	0	0	0	508	505
653	0	0	0	0	508	505
654	0	0	0	0	506	504
655	0	0	0	0	506	506
656	0	0	0	0	508	504
657	0	0	0	0	505	504
658	0	0	0	0	507	507
659	0	0	0	0	506	504
660	0	0	0	0	507	505
661	0	0	0	0	507	505
662	0	0	0	0	506	504
663	0	0	0	0	506	505
664	0	0	0	0	506	506
665	0	0	0	0	507	505
666	0	0	0	0	505	504
667	0	0	0	0	506	507
668	0	0	0	0	508	505
669	0	0	0	0	507	505
670	0	0	0	0	505	507
671	0	0	0	0	507	505
672	0	0	0	0	508	507
673	0	0	0	0	507	507
674	0	0	0	0	505	506
675	0	0	0	0	507	507
676	0	0	0	0	506	507
677	0	0	0	0	507	507
678	0	0	0	0	508	506
679	0	0	0	0	507	507
680	0	0	0	0	505	509
681	0	0	0	0	507	508
682	0	0	0	0	508	510
683	0	0	0	0	506	507
684	0	0	0	0	506	508
685	0	0	0	0	509	508
686	0	0	0	0	508	507
687	0	0	0	0	508	505
688	0	0	0	0	506	508
689	0	0	0	0	507	508
690	0	0	0	0	507	507
691	0	0	0	0	507	507
692	0	0	0	0	506	507
693	0	0	0	0	507	506
694	0	0	0	0	506	508
695	0	0	0	0	507	508
696	0	0	0	0	505	508
697	0	0	0	0	507	507
698	0	0	0	0	508	507
699	0	0	0	0	509	506
700	0	0	0	0	508	508
701	0	0	0	0	507	504
702	0	0	0	0	509	508
703	0	0	0	0	505	507
704	0	0	0	0	508	508
705	0	0	0	0	507	508
706	0	0	0	0	506	507
707	0	0	0	0	508	507
708	0	0	0	0	505	507
709	0	0	0	0	507	505
710	0	0	0	0	506	507
711	0	0	0	0	507	505
712	0	0	0	0	508	508
713	0	0	0	0	507	509
714	0	0	0	0	506	509
715	0	0	0	0	507	507
716	0	0	0	0	507	506
717	0	0	0	0	505	506
718	0	0	0	0	506	509
719	0	0	0	0	506	508
720	0	0	0	0	509	507
721	0	0	0	0	507	506
722	0	0	0	0	507	508
723	0	0	0	0	506	507
724	0	0	0	0	506	505
725	0	0	0	0	507	507
726	0	0	0	0	505	506
727	0	0	0	0	505	506
728	0	0	0	0	505	507
729	0	0	0	0	504	508
730	0	0	0	0	507	507
731	0	0	0	0	507	505
732	0	0	0	0	507	509
733	0	0	0	0	508	506
734	0	0	0	0	507	505
735	0	0	0	0	507	508
736	0	0	0	0	505	507
737	0	0	0	0	508	507
738	0	0	0	0	508	506
739	0	0	0	0	507	506
740	0	0	0	0	507	506
741	0	0	0	0	508	506
742	0	0	0	0	507	506
743	0	0	0	0	505	505
744	0	0	0	0	508	506
745	0	0	0	0	508	504
746	0	0	0	0	507	509
747	0	0	0	0	507	505
748	0	0	0	0	506	508
749	0	0	0	0	507	507
750	0	0	0	0	507	508
751	0	0	0	0	507	508
752	0	0	0	0	508	508
753	0	0	0	0	506	507
754	0	0	0	0	508	506
755	0	0	0	0	509	505
756	0	0	0	0	507	508
757	0	0	0	0	507	508
758	0	0	0	0	506	508
759	0	0	0	0	505	508
760	0	0	0	0	505	508
761	0	0	0	0	507	505
762	0	0	0	0	507	508
763	0	0	0	0	505	507
764	0	0	0	0	505	507
765	0	0	0	0	506	507
766	0	0	0	0	506	507
767	0	0	0	0	508	507
768	0	0	0	0	508	505
769	0	0	0	0	509	507
770	0	0	0	0	507	507
771	0	0	0	0	510	507
772	0	0	0	0	508	505
773	0	0	0	0	508	505
774	0	0	0	0	507	506
775	0	0	0	0	506	507
776	0	0	0	0	506	508
777	0	0	0	0	505	509
778	0	0	0	0	506	508
779	0	0	0	0	506	507
780	0	0	0	0	505	508
781	0	0	0	0	506	506
782	0	0	0	0	507	506
783	0	0	0	0	509	505
784	0	0	0	0	506	508
785	0	0	0	0	507	506
786	0	0	0	0	506	504
787	0	0	0	0	506	508
788	0	0	0	0	508	507
789	0	0	0	0	507	505
790	0	0	0	0	507	508
791	0	0	0	0	507	511
792	0	0	0	0	505	508
793	0	0	0	0	506	506
794	0	0	0	0	506	507
795	0	0	0	0	505	507
796	0	0	0	0	508	507
797	0	0	0	0	507	509
798	0	0	0	0	508	507
799	0	0	0	0	507	507
800	0	0	0	0	507	508
801	0	0	0	0	507	506
802	0	0	0	0	505	506
803	0	0	0	0	510	506
804	0	0	0	0	507	507
805	0	0	0	0	508	508
806	0	0	0	0	506	508
807	0	0	0	0	507	505
808	0	0	0	0	506	507
809	0	0	0	0	508	506
810	0	0	0	0	507	505
811	0	0	0	0	507	507
812	0	0	0	0	508	507
813	0	0	0	0	507	505
814	0	0	0	0	507	508
815	0	0	0	0	505	507
816	0	0	0	0	506	508
817	0	0	0	0	508	506
818	0	0	0	0	507	508
819	0	0	0	0	508	506
820	0	0	0	0	508	507
821	0	0	0	0	505	508
822	0	0	0	0	507	509
823	0	0	0	0	505	508
824	0	0	0	0	507	506
825	0	0	0	0	507	508
826	0	0	0	0	508	507
827	0	0	0	0	505	505
828	0	0	0	0	508	506
829	0	0	0	0	506	507
830	0	0	0	0	508	508
831	0	0	0	0	507	507
832	0	0	0	0	508	507
833	0	0	0	0	507	507
834	0	0	0	0	505	508
835	0	0	0	0	506	506
836	0	0	0	0	508	507
837	0	0	0	0	507	507
838	0	0	0	0	507	507
839	0	0	0	0	507	506
840	0	0	0	0	509	507
841	0	0	0	0	508	508
842	0	0	0	0	507	508
843	0	0	0	0	506	508
844	0	0	0	0	506	506
845	0	0	0	0	508	507
846	0	0	0	0	508	506
847	0	0	0	0	505	507
848	0	0	0	0	507	507
849	0	0	0	0	506	508
850	0	0	0	0	504	508
851	0	0	0	0	504	507
852	0	0	0	0	505	506
853	0	0	0	0	509	506
854	0	0	0	0	506	506
855	0	0	0	0	508	507
856	0	0	0	0	508	505
857	0	0	0	0	507	508
858	0	0	0	0	506	508
859	0	0	0	0	506	505
860	0	0	0	0	507	506
861	0	0	0	0	507	507
862	0	0	0	0	508	507
863	0	0	0	0	508	507
864	0	0	0	0	507	506
865	0	0	0	0	509	504
866	0	0	0	0	508	506
867	0	0	0	0	507	509
868	0	0	0	0	507	507
869	0	0	0	0	505	507
870	0	0	0	0	505	508
871	0	0	0	0	505	510
872	0	0	0	0	508	506
873	0	0	0	0	506	504
874	0	0	0	0	506	505
875	0	0	0	0	507	507
876	0	0	0	0	507	507
877	0	0	0	0	507	508
878	0	0	0	0	508	509
879	0	0	0	0	508	506
880	0	0	0	0	508	505
881	0	0	0	0	508	507
882	0	0	0	0	507	507
883	0	0	0	0	508	508
884	0	0	0	0	507	506
885	0	0	0	0	508	507
886	0	0	0	0	508	507
887	0	0	0	0	507	508
888	0	0	0	0	506	506
889	0	0	0	0	504	506
890	0	0	0	0	507	507
891	0	0	0	0	508	508
892	0	0	0	0	508	505
893	0	0	0	0	509	507
894	0	0	0	0	506	504
895	0	0	0	0	507	507
896	0	0	0	0	507	508
897	0	0	0	0	508	507
898	0	0	0	0	507	506
899	0	0	0	0	505	507
900	0	0	0	0	507	509
901	0	0	0	0	508	508
902	0	0	0	0	505	507
903	0	0	0	0	508	507
904	0	0	0	0	506	508
905	0	0	0	0	508	507
906	0	0	0	0	506	507
907	0	0	0	0	506	507
908	0	0	0	0	509	507
909	0	0	0	0	505	508
910	0	0	0	0	507	508
911	0	0	0	0	505	507
912	0	0	0	0	508	507
913	0	0	0	0	505	506
914	0	0	0	0	508	506
915	0	0	0	0	508	507
916	0	0	0	0	507	508
917	0	0	0	0	507	506
918	0	0	0	0	506	506
919	0	0	0	0	506	505
920	0	0	0	0	508	508
921	0	0	0	0	508	508
922	0	0	0	0	506	506
923	0	0	0	0	507	507
924	0	0	0	0	506	508
925	0	0	0	0	507	507
926	0	0	0	0	508	505
927	0	0	0	0	506	505
928	0	0	0	0	508	505
929	0	0	0	0	507	507
930	0	0	0	0	509	507
931	0	0	0	0	507	508
932	0	0	0	0	504	506
933	0	0	0	0	508	507
934	0	0	0	0	507	505
935	0	0	0	0	505	506
936	0	0	0	0	507	511
937	0	0	0	0	506	507
938	0	0	0	0	507	505
939	0	0	0	0	505	505
940	0	0	0	0	508	508
941	0	0	0	0	508	508
942	0	0	0	0	505	506
943	0	0	0	0	506	507
944	0	0	0	0	506	506
945	0	0	0	0	505	506
946	0	0	0	0	508	510
947	0	0	0	0	505	506
948	0	0	0	0	507	509
949	0	0	0	0	508	508
950	0	0	0	0	507	507
951	0	0	0	0	507	506
952	0	0	0	0	505	505
953	0	0	0	0	508	508
954	0	0	0	0	507	507
955	0	0	0	0	507	508
956	0	0	0	0	506	505
957	0	0	0	0	506	507
958	0	0	0	0	507	507
959	0	0	0	0	507	506
960	0	0	0	0	506	506
961	0	0	0	0	507	507
962	0	0	0	0	506	508
963	0	0	0	0	507	507
964	0	0	0	0	505	506
965	0	0	0	0	507	508
966	0	0	0	0	508	505
967	0	0	0	0	507	508
968	0	0	0	0	507	508
969	0	0	0	0	508	507
970	0	0	0	0	508	507
971	0	0	0	0	507	507
972	0	0	0	0	504	507
973	0	0	0	0	507	507
974	0	0	0	0	507	504
975	0	0	0	0	508	507
976	0	0	0	0	507	507
977	0	0	0	0	508	506
978	0	0	0	0	508	507
979	0	0	0	0	508	506
980	0	0	0	0	505	507
981	0	0	0	0	508	507
982	0	0	0	0	508	508
983	0	0	0	0	507	507
984	0	0	0	0	507	508
985	0	0	0	0	507	508
986	0	0	0	0	505	507
987	0	0	0	0	507	506
988	0	0	0	0	508	507
989	0	0	0	0	507	508
990	0	0	0	0	506	506
991	0	0	0	0	506	505
992	0	0	0	0	508	506
993	0	0	0	0	507	509
994	0	0	0	0	507	506
995	0	0	0	0	507	507
996	0	0	0	0	507	508
997	0	0	0	0	508	506
998	0	0	0	0	508	506
999	0	0	0	0	508	508
1000	0	0	0	0	508	507
1001	0	0	0	0	507	505
1002	0	0	0	0	505	509
1003	0	0	0	0	507	508
1004	0	0	0	0	507	508
1005	0	0	0	0	504	506
1006	0	0	0	0	506	507
1007	0	0	0	0	506	508
1008	0	0	0	0	507	506
1009	0	0	0	0	507	507
1010	0	0	0	0	508	509
1011	0	0	0	0	506	507
1012	0	0	0	0	506	508
1013	0	0	0	0	508	506
1014	0	0	0	0	507	508
1015	0	0	0	0	507	507
1016	0	0	0	0	505	507
1017	0	0	0	0	506	508
1018	0	0	0	0	507	505
1019	0	0	0	0	506	506
1020	0	0	0	0	508	507
1021	0	0	0	0	508	505
1022	0	0	0	0	505	507
1023	0	0	0	0	508	509
1024	0	0	0	0	506	506
1025	0	0	0	0	506	507
1026	0	0	0	0	507	507
1027	0	0	0	0	508	507
1028	0	0	0	0	506	507
1029	0	0	0	0	505	506
1030	0	0	0	0	509	508
1031	0	0	0	0	505	508
1032	0	0	0	0	506	508
1033	0	0	0	0	508	506
1034	0	0	0	0	507	506
1035	0	0	0	0	508	508
1036	0	0	0	0	509	506
1037	0	0	0	0	508	507
1038	0	0	0	0	507	508
1039	0	0	0	0	507	508
1040	0	0	0	0	507	507
1041	0	0	0	0	507	507
1042	0	0	0	0	506	509
1043	0	0	0	0	508	508
1044	0	0	0	0	508	507
1045	0	0	0	0	507	505
1046	0	0	0	0	507	506
1047	0	0	0	0	508	507
1048	0	0	0	0	508	508
1049	0	0	0	0	507	507
1050	0	0	0	0	507	507
1051	0	0	0	0	503	505
1052	0	0	0	0	505	507
1053	0	0	0	0	508	506
1054	0	0	0	0	509	507
1055	0	0	0	0	507	507
1056	0	0	0	0	506	509
1057	0	0	0	0	507	506
1058	0	0	0	0	509	505
1059	0	0	0	0	508	508
1060	0	0	0	0	507	507
1061	0	0	0	0	505	507
1062	0	0	0	0	507	507
1063	0	0	0	0	507	508
1064	0	0	0	0	507	506
1065	0	0	0	0	507	508
1066	0	0	0	0	508	508
1067	0	0	0	0	508	505
1068	0	0	0	0	506	508
1069	0	0	0	0	507	508
1070	0	0	0	0	507	507
1071	0	0	0	0	507	507
1072	0	0	0	0	507	504
1073	0	0	0	0	508	507
1074	0	0	0	0	506	505
1075	0	0	0	0	507	506
1076	0	0	0	0	507	507
1077	0	0	0	0	507	506
1078	0	0	0	0	505	507
1079	0	0	0	0	505	504
1080	0	0	0	0	506	507
1081	0	0	0	0	505	508
1082	0	0	0	0	508	508
1083	0	0	0	0	508	508
1084	0	0	0	0	505	506
1085	0	0	0	0	507	508
1086	0	0	0	0	505	507
1087	0	0	0	0	510	507
1088	0	0	0	0	508	507
1089	0	0	0	0	507	505
1090	0	0	0	0	509	507
1091	0	0	0	0	510	507
1092	0	0	0	0	507	509
1093	0	0	0	0	505	507
1094	0	0	0	0	508	505
1095	0	0	0	0	505	508
1096	0	0	0	0	506	506
1097	0	0	0	0	508	507
1098	0	0	0	0	508	506
1099	0	0	0	0	507	507
1100	0	0	0	0	507	508
1101	0	0	0	0	506	508
1102	0	0	0	0	505	506
1103	0	0	0	0	508	506
1104	0	0	0	0	507	507
1105	0	0	0	0	506	506
1106	0	0	0	0	506	506
1107	0	0	0	0	508	508
1108	0	0	0	0	507	506
1109	0	0	0	0	508	506
1110	0	0	0	0	507	506
1111	0	0	0	0	506	507
1112	0	0	0	0	507	506
1113	0	0	0	0	507	507
1114	0	0	0	0	505	508
1115	0	0	0	0	507	508
1116	0	0	0	0	508	508
1117	0	0	0	0	507	507
1118	0	0	0	0	504	509
1119	0	0	0	0	508	508
1120	0	0	0	0	508	507
1121	0	0	0	0	509	506
1122	0	0	0	0	508	506
1123	0	0	0	0	508	507
1124	0	0	0	0	508	508
1125	0	0	0	0	508	508
1126	0	0	0	0	508	509
1127	0	0	0	0	507	506
1128	0	0	0	0	504	509
1129	0	0	0	0	506	506
1130	0	0	0	0	508	505
1131	0	0	0	0	505	505
1132	0	0	0	0	505	509
1133	0	0	0	0	506	508
1134	0	0	0	0	505	507
1135	0	0	0	0	505	505
1136	0	0	0	0	508	506
1137	0	0	0	0	510	506
1138	0	0	0	0	508	508
1139	0	0	0	0	507	505
1140	0	0	0	0	505	505
1141	0	0	0	0	507	505
1142	0	0	0	0	507	509
1143	0	0	0	0	507	508
1144	0	0	0	0	505	505
1145	0	0	0	0	507	507
1146	0	0	0	0	507	507
1147	0	0	0	0	507	507
1148	0	0	0	0	508	509
1149	0	0	0	0	505	507
1150	0	0	0	0	506	507
1151	0	0	0	0	507	505
1152	0	0	0	0	507	504
1153	0	0	0	0	504	508
1154	0	0	0	0	507	508
1155	0	0	0	0	508	506
1156	0	0	0	0	508	507
1157	0	0	0	0	507	507
1158	0	0	0	0	508	508
1159	0	0	0	0	508	506
1160	0	0	0	0	508	505
1161	0	0	0	0	508	508
1162	0	0	0	0	505	506
1163	0	0	0	0	507	509
1164	0	0	0	0	508	508
1165	0	0	0	0	509	508
1166	0	0	0	0	508	508
1167	0	0	0	0	508	506
1168	0	0	0	0	507	504
1169	0	0	0	0	507	508
1170	0	0	0	0	505	507
1171	0	0	0	0	507	508
1172	0	0	0	0	507	507
1173	0	0	0	0	507	505
1174	0	0	0	0	508	505
1175	0	0	0	0	505	507
1176	0	0	0	0	508	507
1177	0	0	0	0	506	506
1178	0	0	0	0	505	507
1179	0	0	0	0	506	508
1180	0	0	0	0	505	507
1181	0	0	0	0	508	507
1182	0	0	0	0	507	508
1183	0	0	0	0	505	508
1184	0	0	0	0	507	509
1185	0	0	0	0	506	505
1186	0	0	0	0	507	506
1187	0	0	0	0	507	507
1188	0	0	0	0	507	506
1189	0	0	0	0	507	508
1190	0	0	0	0	505	509
1191	0	0	0	0	508	506
1192	0	0	0	0	508	508
1193	0	0	0	0	506	508
1194	0	0	0	0	508	506
1195	0	0	0	0	506	509
1196	0	0	0	0	505	507
1197	0	0	0	0	507	506
1198	0	0	0	0	507	507
1199	0	0	0	0	505	505
1200	0	0	0	0	507	505
1201	0	0	0	0	508	505
1202	0	0	0	0	508	508
1203	0	0	0	0	508	508
1204	0	0	0	0	508	506
1205	0	0	0	0	511	507
1206	0	0	0	0	507	507
1207	0	0	0	0	506	508
1208	0	0	0	0	508	508
1209	0	0	0	0	509	505
1210	0	0	0	0	508	505
1211	0	0	0	0	507	507
1212	0	0	0	0	507	507
1213	0	0	0	0	507	507
1214	0	0	0	0	507	509
1215	0	0	0	0	506	507
1216	0	0	0	0	507	508
1217	0	0	0	0	507	508
1218	0	0	0	0	507	506
1219	0	0	0	0	507	506
1220	0	0	0	0	506	507
1221	0	0	0	0	507	505
1222	0	0	0	0	507	506
1223	0	0	0	0	507	504
1224	0	0	0	0	506	504
1225	0	0	0	0	506	506
1226	0	0	0	0	507	505
1227	0	0	0	0	507	504
1228	0	0	0	0	511	504
1229	0	0	0	0	505	505
1230	0	0	0	0	507	507
1231	0	0	0	0	507	506
1232	0	0	0	0	508	505
1233	0	0	0	0	507	505
1234	0	0	0	0	505	506
1235	0	0	0	0	507	506
1236	0	0	0	0	508	509
1237	0	0	0	0	507	508
1238	0	0	0	0	506	509
1239	0	0	0	0	508	507
1240	0	0	0	0	507	508
1241	0	0	0	0	506	508
1242	0	0	0	0	506	507
1243	0	0	0	0	505	508
1244	0	0	0	0	509	506
1245	0	0	0	0	507	509
1246	0	0	0	0	506	508
1247	0	0	0	0	508	511
1248	0	0	0	0	508	512
1249	0	0	0	0	508	511
1250	0	0	0	0	508	511
1251	0	0	0	0	506	510
1252	0	0	0	0	505	512
1253	0	0	0	0	504	511
1254	0	0	0	0	507	511
1255	0	0	0	0	508	510
1256	0	0	0	0	509	508
1257	0	0	0	0	507	510
1258	0	0	0	0	508	508
1259	0	0	0	0	508	509
1260	0	0	0	0	507	508
1261	0	0	0	0	507	509
1262	0	0	0	0	507	508
1263	0	0	0	0	507	504
1264	0	0	0	0	508	507
1265	0	0	0	0	505	505
1266	0	0	0	0	507	503
1267	0	0	0	0	507	507
1268	0	0	0	0	508	507
1269	0	0	0	0	507	504
1270	0	0	0	0	507	504
1271	0	0	0	0	508	504
1272	0	0	0	0	507	505
1273	0	0	0	0	506	505
1274	0	0	0	0	505	506
1275	0	0	0	0	504	506
1276	0	0	0	0	507	507
1277	0	0	0	0	508	505
1278	0	0	0	0	508	507
1279	0	0	0	0	506	505
1280	0	0	0	0	508	504
1281	0	0	0	0	506	504
1282	0	0	0	0	505	508
1283	0	0	0	0	508	505
1284	0	0	0	0	508	507
1285	0	0	0	0	504	507
1286	0	0	0	0	507	503
1287	0	0	0	0	507	507
1288	0	0	0	0	509	506
1289	0	0	0	0	509	504
1290	0	0	0	0	507	505
1291	0	0	0	0	507	507
1292	0	0	0	0	507	508
1293	0	0	0	0	507	507
1294	0	0	0	0	507	507
1295	0	0	0	0	509	508
1296	0	0	0	0	508	506
1297	0	0	0	0	507	508
1298	0	0	0	0	507	508
1299	0	0	0	0	508	507
1300	0	0	0	0	508	508
1301	0	0	0	0	507	507
1302	0	0	0	0	506	507
1303	0	0	0	0	507	505
1304	0	0	0	0	504	506
1305	0	0	0	0	505	508
1306	0	0	0	0	505	507
1307	0	0	0	0	507	505
1308	0	0	0	0	507	506
1309	0	0	0	0	508	507
1310	0	0	0	0	507	506
1311	0	0	0	0	508	507
1312	0	0	0	0	508	508
1313	0	0	0	0	506	509
1314	0	0	0	0	506	507
1315	0	0	0	0	506	508
1316	0	0	0	0	508	508
1317	0	0	0	0	508	508
1318	0	0	0	0	509	508
1319	0	0	0	0	507	506
1320	0	0	0	0	508	508
1321	0	0	0	0	508	504
1322	0	0	0	0	505	505
1323	0	0	0	0	508	507
1324	0	0	0	0	506	509
1325	0	0	0	0	507	506
1326	0	0	0	0	510	506
1327	0	0	0	0	505	507
1328	0	0	0	0	506	509
1329	0	0	0	0	507	506
1330	0	0	0	0	508	508
1331	0	0	0	0	508	507
1332	0	0	0	0	509	507
1333	0	0	0	0	508	507
1334	0	0	0	0	507	505
1335	0	0	0	0	508	508
1336	0	0	0	0	507	508
1337	0	0	0	0	507	505
1338	0	0	0	0	507	508
1339	0	0	0	0	507	507
1340	0	0	0	0	505	507
1341	0	0	0	0	505	508
1342	0	0	0	0	508	508
1343	0	0	0	0	506	507
1344	0	0	0	0	507	508
1345	0	0	0	0	507	506
1346	0	0	0	0	507	508
1347	0	0	0	0	505	505
1348	0	0	0	0	507	509
1349	0	0	0	0	510	507
1350	0	0	0	0	508	507
1351	0	0	0	0	507	506
1352	0	0	0	0	508	507
1353	0	0	0	0	507	507
1354	0	0	0	0	508	505
1355	0	0	0	0	507	509
1356	0	0	0	0	508	507
1357	0	0	0	0	507	507
1358	0	0	0	0	505	508
1359	0	0	0	0	507	507
1360	0	0	0	0	506	506
1361	0	0	0	0	508	506
1362	0	0	0	0	506	505
1363	0	0	0	0	505	507
1364	0	0	0	0	506	508
1365	0	0	0	0	506	509
1366	0	0	0	0	506	507
1367	0	0	0	0	508	506
1368	0	0	0	0	509	505
1369	0	0	0	0	508	504
1370	0	0	0	0	507	508
1371	0	0	0	0	508	507
1372	0	0	0	0	506	506
1373	0	0	0	0	506	507
1374	0	0	0	0	507	507
1375	0	0	0	0	507	508
1376	0	0	0	0	506	507
1377	0	0	0	0	507	507
1378	0	0	0	0	506	508
1379	0	0	0	0	507	507
1380	0	0	0	0	507	508
1381	0	0	0	0	509	506
1382	0	0	0	0	508	506
1383	0	0	0	0	505	504
1384	0	0	0	0	507	506
1385	0	0	0	0	507	507
1386	0	0	0	0	505	508
1387	0	0	0	0	508	507
1388	0	0	0	0	506	505
1389	0	0	0	0	506	507
1390	0	0	0	0	507	510
1391	0	0	0	0	506	508
1392	0	0	0	0	505	507
1393	0	0	0	0	506	508
1394	0	0	0	0	508	508
1395	0	0	0	0	508	507
1396	0	0	0	0	507	507
1397	0	0	0	0	507	507
1398	0	0	0	0	507	506
1399	0	0	0	0	507	507
1400	0	0	0	0	508	506
1401	0	0	0	0	508	506
1402	0	0	0	0	506	508
1403	0	0	0	0	507	506
1404	0	0	0	0	508	504
1405	0	0	0	0	508	505
1406	0	0	0	0	508	508
1407	0	0	0	0	508	506
1408	0	0	0	0	508	506
1409	0	0	0	0	506	508
1410	0	0	0	0	508	508
1411	0	0	0	0	508	508
1412	0	0	0	0	506	505
1413	0	0	0	0	510	507
1414	0	0	0	0	507	507
1415	0	0	0	0	507	508
1416	0	0	0	0	507	507
1417	0	0	0	0	505	506
1418	0	0	0	0	507	506
1419	0	0	0	0	506	508
1420	0	0	0	0	507	507
1421	0	0	0	0	505	504
1422	0	0	0	0	507	506
1423	0	0	0	0	507	508
1424	0	0	0	0	506	507
1425	0	0	0	0	507	505
1426	0	0	0	0	505	506
1427	0	0	0	0	507	507
1428	0	0	0	0	507	508
1429	0	0	0	0	507	508
1430	0	0	0	0	505	507
1431	0	0	0	0	508	508
1432	0	0	0	0	509	506
1433	0	0	0	0	509	508
1434	0	0	0	0	507	508
1435	0	0	0	0	508	509
1436	0	0	0	0	506	508
1437	0	0	0	0	506	506
1438	0	0	0	0	508	507
1439	0	0	0	0	507	507
1440	0	0	0	0	507	506
1441	0	0	0	0	508	505
1442	0	0	0	0	508	508
1443	0	0	0	0	506	508
1444	0	0	0	0	505	505
1445	0	0	0	0	505	507
1446	0	0	0	0	508	507
1447	0	0	0	0	507	505
1448	0	0	0	0	507	507
1449	0	0	0	0	508	506
1450	0	0	0	0	507	506
1451	0	0	0	0	506	509
1452	0	0	0	0	506	508
1453	0	0	0	0	505	507
1454	0	0	0	0	508	505
1455	0	0	0	0	507	506
1456	0	0	0	0	508	507
1457	0	0	0	0	507	508
1458	0	0	0	0	506	508
1459	0	0	0	0	508	508
1460	0	0	0	0	509	507
1461	0	0	0	0	507	508
1462	0	0	0	0	508	507
1463	0	0	0	0	506	508
1464	0	0	0	0	506	508
1465	0	0	0	0	507	508
1466	0	0	0	0	507	505
1467	0	0	0	0	507	505
1468	0	0	0	0	508	505
1469	0	0	0	0	507	507
1470	0	0	0	0	507	507
1471	0	0	0	0	508	507
1472	0	0	0	0	507	507
1473	0	0	0	0	507	508
1474	0	0	0	0	509	507
1475	0	0	0	0	508	508
1476	0	0	0	0	508	507
1477	0	0	0	0	506	507
1478	0	0	0	0	508	508
1479	0	0	0	0	508	507
1480	0	0	0	0	505	504
1481	0	0	0	0	507	508
1482	0	0	0	0	507	506
1483	0	0	0	0	508	507
1484	0	0	0	0	506	507
1485	0	0	0	0	508	507
1486	0	0	0	0	508	506
1487	0	0	0	0	508	508
1488	0	0	0	0	507	508
1489	0	0	0	0	507	507
1490	0	0	0	0	505	507
1491	0	0	0	0	507	506
1492	0	0	0	0	509	504
1493	0	0	0	0	509	507
1494	0	0	0	0	508	508
1495	0	0	0	0	505	507
1496	0	0	0	0	507	507
1497	0	0	0	0	505	507
1498	0	0	0	0	507	508
1499	0	0	0	0	505	508
1500	0	0	0	0	506	507
1501	0	0	0	0	505	508
1502	0	0	0	0	506	507
1503	0	0	0	0	505	509
1504	0	0	0	0	507	506
1505	0	0	0	0	507	507
1506	0	0	0	0	507	508
1507	0	0	0	0	508	507
1508	0	0	0	0	507	508
1509	0	0	0	0	507	506
1510	0	0	0	0	507	508
1511	0	0	0	0	504	507
1512	0	0	0	0	505	507
1513	0	0	0	0	506	507
1514	0	0	0	0	508	505
1515	0	0	0	0	506	507
1516	0	0	0	0	507	507
1517	0	0	0	0	507	507
1518	0	0	0	0	506	506
1519	0	0	0	0	507	508
1520	0	0	0	0	506	509
1521	0	0	0	0	508	507
1522	0	0	0	0	509	507
1523	0	0	0	0	510	507
1524	0	0	0	0	506	506
1525	0	0	0	0	508	508
1526	0	0	0	0	507	507
1527	0	0	0	0	506	505
1528	0	0	0	0	506	508
1529	0	0	0	0	508	506
1530	0	0	0	0	505	507
1531	0	0	0	0	508	507
1532	0	0	0	0	508	507
1533	0	0	0	0	507	508
1534	0	0	0	0	505	506
1535	0	0	0	0	504	507
1536	0	0	0	0	505	508
1537	0	0	0	0	504	508
1538	0	0	0	0	507	507
1539	0	0	0	0	508	506
1540	0	0	0	0	508	506
1541	0	0	0	0	510	506
1542	0	0	0	0	508	505
1543	0	0	0	0	505	507
1544	0	0	0	0	508	508
1545	0	0	0	0	506	507
1546	0	0	0	0	510	505
1547	0	0	0	0	508	507
1548	0	0	0	0	507	508
1549	0	0	0	0	508	506
1550	0	0	0	0	508	505
1551	0	0	0	0	505	506
1552	0	0	0	0	505	506
1553	0	0	0	0	506	508
1554	0	0	0	0	509	508
1555	0	0	0	0	508	510
1556	0	0	0	0	507	508
1557	0	0	0	0	505	507
1558	0	0	0	0	507	507
1559	0	0	0	0	508	506
1560	0	0	0	0	507	506
1561	0	0	0	0	505	508
1562	0	0	0	0	505	507
1563	0	0	0	0	505	508
1564	0	0	0	0	507	507
1565	0	0	0	0	507	505
1566	0	0	0	0	507	507
1567	0	0	0	0	508	506
1568	0	0	0	0	508	507
1569	0	0	0	0	508	507
1570	0	0	0	0	508	507
1571	0	0	0	0	508	508
1572	0	0	0	0	505	507
1573	0	0	0	0	505	507
1574	0	0	0	0	509	508
1575	0	0	0	0	507	508
1576	0	0	0	0	507	507
1577	0	0	0	0	506	508
1578	0	0	0	0	508	506
1579	0	0	0	0	505	507
1580	0	0	0	0	507	508
1581	0	0	0	0	505	507
1582	0	0	0	0	507	508
1583	0	0	0	0	507	507
1584	0	0	0	0	508	506
1585	0	0	0	0	507	507
1586	0	0	0	0	507	508
1587	0	0	0	0	506	507
1588	0	0	0	0	507	507
1589	0	0	0	0	506	510
1590	0	0	0	0	509	508
1591	0	0	0	0	509	506
1592	0	0	0	0	507	506
1593	0	0	0	0	507	505
1594	0	0	0	0	507	507
1595	0	0	0	0	505	507
1596	0	0	0	0	508	508
1597	0	0	0	0	505	506
1598	0	0	0	0	508	507
1599	0	0	0	0	507	506
1600	0	0	0	0	507	507
1601	0	0	0	0	508	507
1602	0	0	0	0	508	507
1603	0	0	0	0	505	507
1604	0	0	0	0	508	505
1605	0	0	0	0	507	509
1606	0	0	0	0	507	508
1607	0	0	0	0	505	508
1608	0	0	0	0	506	508
1609	0	0	0	0	506	507
1610	0	0	0	0	507	508
1611	0	0	0	0	507	506
1612	0	0	0	0	507	507
1613	0	0	0	0	504	507
1614	0	0	0	0	508	505
1615	0	0	0	0	507	508
1616	0	0	0	0	507	507
1617	0	0	0	0	506	507
1618	0	0	0	0	505	505
1619	0	0	0	0	508	507
1620	0	0	0	0	507	507
1621	0	0	0	0	509	507
1622	0	0	0	0	507	507
1623	0	0	0	0	509	505
1624	0	0	0	0	505	507
1625	0	0	0	0	509	508
1626	0	0	0	0	508	506
1627	0	0	0	0	506	505
1628	0	0	0	0	508	508
1629	0	0	0	0	506	505
1630	0	0	0	0	507	507
1631	0	0	0	0	507	507
1632	0	0	0	0	508	506
1633	0	0	0	0	507	506
1634	0	0	0	0	507	508
1635	0	0	0	0	506	509
1636	0	0	0	0	507	506
1637	0	0	0	0	505	509
1638	0	0	0	0	508	507
1639	0	0	0	0	505	507
1640	0	0	0	0	508	507
1641	0	0	0	0	508	508
1642	0	0	0	0	505	507
1643	0	0	0	0	508	507
1644	0	0	0	0	505	505
1645	0	0	0	0	507	506
1646	0	0	0	0	508	506
1647	0	0	0	0	507	508
1648	0	0	0	0	509	507
1649	0	0	0	0	506	506
1650	0	0	0	0	508	508
1651	0	0	0	0	505	507
1652	0	0	0	0	507	506
1653	0	0	0	0	507	507
1654	0	0	0	0	506	508
1655	0	0	0	0	507	508
1656	0	0	0	0	506	505
1657	0	0	0	0	507	505
1658	0	0	0	0	505	508
1659	0	0	0	0	507	507
1660	0	0	0	0	507	507
1661	0	0	0	0	505	506
1662	0	0	0	0	507	505
1663	0	0	0	0	508	506
1664	0	0	0	0	506	506
1665	0	0	0	0	506	507
1666	0	0	0	0	507	508
1667	0	0	0	0	507	507
1668	0	0	0	0	507	508
1669	0	0	0	0	507	509
1670	0	0	0	0	509	508
1671	0	0	0	0	508	508
1672	0	0	0	0	510	507
1673	0	0	0	0	507	508
1674	0	0	0	0	505	507
1675	0	0	0	0	507	508
1676	0	0	0	0	509	510
1677	0	0	0	0	507	507
1678	0	0	0	0	508	507
1679	0	0	0	0	505	506
1680	0	0	0	0	507	505
1681	0	0	0	0	506	505
1682	0	0	0	0	509	507
1683	0	0	0	0	507	508
1684	0	0	0	0	507	506
1685	0	0	0	0	509	508
1686	0	0	0	0	507	507
1687	0	0	0	0	504	506
1688	0	0	0	0	508	506
1689	0	0	0	0	507	508
1690	0	0	0	0	506	507
1691	0	0	0	0	507	505
1692	0	0	0	0	508	508
1693	0	0	0	0	505	508
1694	0	0	0	0	505	508
1695	0	0	0	0	506	505
1696	0	0	0	0	506	507
1697	0	0	0	0	507	508
1698	0	0	0	0	508	508
1699	0	0	0	0	506	508
1700	0	0	0	0	505	508
1701	0	0	0	0	507	508
1702	0	0	0	0	505	506
1703	0	0	0	0	508	507
1704	0	0	0	0	508	506
1705	0	0	0	0	509	508
1706	0	0	0	0	508	508
1707	0	0	0	0	505	507
1708	0	0	0	0	507	507
1709	0	0	0	0	508	506
1710	0	0	0	0	506	505
1711	0	0	0	0	507	507
1712	0	0	0	0	508	506
1713	0	0	0	0	508	508
1714	0	0	0	0	508	506
1715	0	0	0	0	506	505
1716	0	0	0	0	505	507
1717	0	0	0	0	508	506
1718	0	0	0	0	505	506
1719	0	0	0	0	506	507
1720	0	0	0	0	508	506
1721	0	0	0	0	507	508
1722	0	0	0	0	507	508
1723	0	0	0	0	507	507
1724	0	0	0	0	508	507
1725	0	0	0	0	508	507
1726	0	0	0	0	508	506
1727	0	0	0	0	506	509
1728	0	0	0	0	504	508
1729	0	0	0	0	505	506
1730	0	0	0	0	508	506
1731	0	0	0	0	508	507
1732	0	0	0	0	505	506
1733	0	0	0	0	506	505
1734	0	0	0	0	506	508
1735	0	0	0	0	507	508
1736	0	0	0	0	506	507
1737	0	0	0	0	508	506
1738	0	0	0	0	509	506
1739	0	0	0	0	507	506
1740	0	0	0	0	507	507
1741	0	0	0	0	506	506
1742	0	0	0	0	508	505
1743	0	0	0	0	506	507
1744	0	0	0	0	508	508
1745	0	0	0	0	507	505
1746	0	0	0	0	507	508
1747	0	0	0	0	507	507
1748	0	0	0	0	508	506
1749	0	0	0	0	508	508
1750	0	0	0	0	508	505
1751	0	0	0	0	508	506
1752	0	0	0	0	507	507
1753	0	0	0	0	507	506
1754	0	0	0	0	507	507
1755	0	0	0	0	507	507
1756	0	0	0	0	507	508
1757	0	0	0	0	505	507
1758	0	0	0	0	508	508
1759	0	0	0	0	508	507
1760	0	0	0	0	508	507
1761	0	0	0	0	508	506
1762	0	0	0	0	507	508
1763	0	0	0	0	506	510
1764	0	0	0	0	505	508
1765	0	0	0	0	508	507
1766	0	0	0	0	508	507
1767	0	0	0	0	507	509
1768	0	0	0	0	509	506
1769	0	0	0	0	508	507
1770	0	0	0	0	508	506
1771	0	0	0	0	506	506
1772	0	0	0	0	507	507
1773	0	0	0	0	508	507
1774	0	0	0	0	506	508
1775	0	0	0	0	506	505
1776	0	0	0	0	504	507
1777	0	0	0	0	507	507
1778	0	0	0	0	507	510
1779	0	0	0	0	507	508
1780	0	0	0	0	506	506
1781	0	0	0	0	504	508
1782	0	0	0	0	507	508
1783	0	0	0	0	508	509
1784	0	0	0	0	506	506
1785	0	0	0	0	508	507
1786	0	0	0	0	506	509
1787	0	0	0	0	505	508
1788	0	0	0	0	506	505
1789	0	0	0	0	506	506
1790	0	0	0	0	507	508
1791	0	0	0	0	508	506
1792	0	0	0	0	505	508
1793	0	0	0	0	505	507
1794	0	0	0	0	508	508
1795	0	0	0	0	508	508
1796	0	0	0	0	507	507
1797	0	0	0	0	506	505
1798	0	0	0	0	506	508
1799	0	0	0	0	508	509
1800	0	0	0	0	508	507
1801	0	0	0	0	507	508
1802	0	0	0	0	508	507
1803	0	0	0	0	508	508
1804	0	0	0	0	507	507
1805	0	0	0	0	507	506
1806	0	0	0	0	507	506
1807	0	0	0	0	507	505
1808	0	0	0	0	508	506
1809	0	0	0	0	504	508
1810	0	0	0	0	508	508
1811	0	0	0	0	508	505
1812	0	0	0	0	507	506
1813	0	0	0	0	507	506
1814	0	0	0	0	507	508
1815	0	0	0	0	506	508
1816	0	0	0	0	507	507
1817	0	0	0	0	505	505
1818	0	0	0	0	508	508
1819	0	0	0	0	508	507
1820	0	0	0	0	506	506
1821	0	0	0	0	506	505
1822	0	0	0	0	506	508
1823	0	0	0	0	508	507
1824	0	0	0	0	508	507
1825	0	0	0	0	507	506
1826	0	0	0	0	505	508
1827	0	0	0	0	508	508
1828	0	0	0	0	506	507
1829	0	0	0	0	509	505
1830	0	0	0	0	508	507
1831	0	0	0	0	505	507
1832	0	0	0	0	505	506
1833	0	0	0	0	507	506
1834	0	0	0	0	507	508
1835	0	0	0	0	505	506
1836	0	0	0	0	508	508
1837	0	0	0	0	507	504
1838	0	0	0	0	506	507
1839	0	0	0	0	507	506
1840	0	0	0	0	508	509
1841	0	0	0	0	507	507
1842	0	0	0	0	506	508
1843	0	0	0	0	507	505
1844	0	0	0	0	508	508
1845	0	0	0	0	507	508
1846	0	0	0	0	508	507
1847	0	0	0	0	506	507
1848	0	0	0	0	508	507
1849	0	0	0	0	507	506
1850	0	0	0	0	507	506
1851	0	0	0	0	505	507
1852	0	0	0	0	505	507
1853	0	0	0	0	507	507
1854	0	0	0	0	508	505
1855	0	0	0	0	505	507
1856	0	0	0	0	507	507
1857	0	0	0	0	508	506
1858	0	0	0	0	508	508
1859	0	0	0	0	505	507
1860	0	0	0	0	507	508
1861	0	0	0	0	505	508
1862	0	0	0	0	507	506
1863	0	0	0	0	507	507
1864	0	0	0	0	507	507
1865	0	0	0	0	507	507
1866	0	0	0	0	508	507
1867	0	0	0	0	509	507
1868	0	0	0	0	507	508
1869	0	0	0	0	505	508
1870	0	0	0	0	507	507
1871	0	0	0	0	507	507
1872	0	0	0	0	507	509
1873	0	0	0	0	509	508
1874	0	0	0	0	508	506
1875	0	0	0	0	507	505
1876	0	0	0	0	507	504
1877	0	0	0	0	504	505
1878	0	0	0	0	506	509
1879	0	0	0	0	506	508
1880	0	0	0	0	508	507
1881	0	0	0	0	508	505
1882	0	0	0	0	506	508
1883	0	0	0	0	506	509
1884	0	0	0	0	507	508
1885	0	0	0	0	507	507
1886	0	0	0	0	508	508
1887	0	0	0	0	507	508
1888	0	0	0	0	508	506
1889	0	0	0	0	508	504
1890	0	0	0	0	505	507
1891	0	0	0	0	505	505
1892	0	0	0	0	505	506
1893	0	0	0	0	507	507
1894	0	0	0	0	507	504
1895	0	0	0	0	508	507
1896	0	0	0	0	507	505
1897	0	0	0	0	508	505
1898	0	0	0	0	508	506
1899	0	0	0	0	510	505
1900	0	0	0	0	507	505
1901	0	0	0	0	507	504
1902	0	0	0	0	507	505
1903	0	0	0	0	508	505
1904	0	0	0	0	508	505
1905	0	0	0	0	508	505
1906	0	0	0	0	507	508
1907	0	0	0	0	508	507
1908	0	0	0	0	508	507
1909	0	0	0	0	506	507
1910	0	0	0	0	507	507
1911	0	0	0	0	508	507
1912	0	0	0	0	508	509
1913	0	0	0	0	508	507
1914	0	0	0	0	508	508
1915	0	0	0	0	507	507
1916	0	0	0	0	505	509
1917	0	0	0	0	505	509
1918	0	0	0	0	505	513
1919	0	0	0	0	507	512
1920	0	0	0	0	505	511
1921	0	0	0	0	505	511
1922	0	0	0	0	508	510
1923	0	0	0	0	507	510
1924	0	0	0	0	508	510
1925	0	0	0	0	506	509
1926	0	0	0	0	510	509
1927	0	0	0	0	509	511
1928	0	0	0	0	505	508
1929	0	0	0	0	509	508
1930	0	0	0	0	505	509
1931	0	0	0	0	506	509
1932	0	0	0	0	507	509
1933	0	0	0	0	505	505
1934	0	0	0	0	505	506
1935	0	0	0	0	509	505
1936	0	0	0	0	508	504
1937	0	0	0	0	507	504
1938	0	0	0	0	507	505
1939	0	0	0	0	506	504
1940	0	0	0	0	508	506
1941	0	0	0	0	508	505
1942	0	0	0	0	507	507
1943	0	0	0	0	505	506
1944	0	0	0	0	508	504
1945	0	0	0	0	504	505
1946	0	0	0	0	508	507
1947	0	0	0	0	507	503
1948	0	0	0	0	508	504
1949	0	0	0	0	507	505
1950	0	0	0	0	507	504
1951	0	0	0	0	505	504
1952	0	0	0	0	507	507
1953	0	0	0	0	508	506
1954	0	0	0	0	507	504
1955	0	0	0	0	507	507
1956	0	0	0	0	507	505
1957	0	0	0	0	505	505
1958	0	0	0	0	506	505
1959	0	0	0	0	505	507
1960	0	0	0	0	509	507
1961	0	0	0	0	507	507
1962	0	0	0	0	506	507
1963	0	0	0	0	506	506
1964	0	0	0	0	507	507
1965	0	0	0	0	507	508
1966	0	0	0	0	508	510
1967	0	0	0	0	505	507
1968	0	0	0	0	508	506
1969	0	0	0	0	505	508
1970	0	0	0	0	508	507
1971	0	0	0	0	507	508
1972	0	0	0	0	508	508
1973	0	0	0	0	505	508
1974	0	0	0	0	506	508
1975	0	0	0	0	505	506
1976	0	0	0	0	508	508
1977	0	0	0	0	506	508
1978	0	0	0	0	508	508
1979	0	0	0	0	506	507
1980	0	0	0	0	507	507
1981	0	0	0	0	507	506
1982	0	0	0	0	506	507
1983	0	0	0	0	508	507
1984	0	0	0	0	508	507
1985	0	0	0	0	508	508
1986	0	0	0	0	506	507
1987	0	0	0	0	508	505
1988	0	0	0	0	506	508
1989	0	0	0	0	504	509
1990	0	0	0	0	505	507
1991	0	0	0	0	507	507
1992	0	0	0	0	506	508
1993	0	0	0	0	508	506
1994	0	0	0	0	507	507
1995	0	0	0	0	507	508
1996	0	0	0	0	508	508
1997	0	0	0	0	507	506
1998	0	0	0	0	507	508
1999	0	0	0	0	507	508
2000	0	0	0	0	508	508
2001	0	0	0	0	507	506
2002	0	0	0	0	509	507
2003	0	0	0	0	508	508
2004	0	0	0	0	507	509
2005	0	0	0	0	505	506
2006	0	0	0	0	505	507
2007	0	0	0	0	505	505
2008	0	0	0	0	508	508
2009	0	0	0	0	507	505
2010	0	0	0	0	508	507
2011	0	0	0	0	508	507
2012	0	0	0	0	508	507
2013	0	0	0	0	506	508
2014	0	0	0	0	507	508
2015	0	0	0	0	507	507
2016	0	0	0	0	508	504
2017	0	0	0	0	507	507
2018	0	0	0	0	505	508
2019	0	0	0	0	506	508
2020	0	0	0	0	507	505
2021	0	0	0	0	508	507
2022	0	0	0	0	508	507
2023	0	0	0	0	505	507
2024	0	0	0	0	506	507
2025	0	0	0	0	507	507
2026	0	0	0	0	507	508
2027	0	0	0	0	507	508
2028	0	0	0	0	505	508
2029	0	0	0	0	507	508
2030	0	0	0	0	509	506
2031	0	0	0	0	508	506
2032	0	0	0	0	504	506
2033	0	0	0	0	507	507
2034	0	0	0	0	509	506
2035	0	0	0	0	510	505
2036	0	0	0	0	508	505
2037	0	0	0	0	507	507
2038	0	0	0	0	506	506
2039	0	0	0	0	506	508
2040	0	0	0	0	505	510
2041	0	0	0	0	508	508
2042	0	0	0	0	508	507
2043	0	0	0	0	508	507
2044	0	0	0	0	506	508
2045	0	0	0	0	505	508
2046	0	0	0	0	507	505
2047	0	0	0	0	507	507
2048	0	0	0	0	508	505
2049	0	0	0	0	505	508
2050	0	0	0	0	507	507
2051	0	0	0	0	506	507
2052	0	0	0	0	507	507
2053	0	0	0	0	508	505
2054	0	0	0	0	505	504
2055	0	0	0	0	505	505
2056	0	0	0	0	507	508
2057	0	0	0	0	507	508
2058	0	0	0	0	505	508
2059	0	0	0	0	506	506
2060	0	0	0	0	507	508
2061	0	0	0	0	506	508
2062	0	0	0	0	509	509
2063	0	0	0	0	508	507
2064	0	0	0	0	509	505
2065	0	0	0	0	505	507
2066	0	0	0	0	506	507
2067	0	0	0	0	508	508
2068	0	0	0	0	506	507
2069	0	0	0	0	506	507
2070	0	0	0	0	508	506
2071	0	0	0	0	504	508
2072	0	0	0	0	507	506
2073	0	0	0	0	509	506
2074	0	0	0	0	505	507
2075	0	0	0	0	508	507
2076	0	0	0	0	505	507
2077	0	0	0	0	507	508
2078	0	0	0	0	507	507
2079	0	0	0	0	508	507
2080	0	0	0	0	507	506
2081	0	0	0	0	505	507
2082	0	0	0	0	506	506
2083	0	0	0	0	506	506
2084	0	0	0	0	508	509
2085	0	0	0	0	505	508
2086	0	0	0	0	508	507
2087	0	0	0	0	508	507
2088	0	0	0	0	507	509
2089	0	0	0	0	506	507
2090	0	0	0	0	506	505
2091	0	0	0	0	507	507
2092	0	0	0	0	506	508
2093	0	0	0	0	508	506
2094	0	0	0	0	507	506
2095	0	0	0	0	507	507
2096	0	0	0	0	508	509
2097	0	0	0	0	507	507
2098	0	0	0	0	507	507
2099	0	0	0	0	506	506
2100	0	0	0	0	506	509
2101	0	0	0	0	506	506
2102	0	0	0	0	505	506
2103	0	0	0	0	506	506
2104	0	0	0	0	505	506
2105	0	0	0	0	508	505
2106	0	0	0	0	508	508
2107	0	0	0	0	506	506
2108	0	0	0	0	506	507
2109	0	0	0	0	507	507
2110	0	0	0	0	508	508
2111	0	0	0	0	509	506
2112	0	0	0	0	508	508
2113	0	0	0	0	508	506
2114	0	0	0	0	507	508
2115	0	0	0	0	506	508
2116	0	0	0	0	506	507
2117	0	0	0	0	507	506
2118	0	0	0	0	508	509
2119	0	0	0	0	508	508
2120	0	0	0	0	507	507
2121	0	0	0	0	506	506
2122	0	0	0	0	508	506
2123	0	0	0	0	506	506
2124	0	0	0	0	507	506
2125	0	0	0	0	507	507
2126	0	0	0	0	507	504
2127	0	0	0	0	506	505
2128	0	0	0	0	506	508
2129	0	0	0	0	506	507
2130	0	0	0	0	507	505
2131	0	0	0	0	506	506
2132	0	0	0	0	506	508
2133	0	0	0	0	508	506
2134	0	0	0	0	506	505
2135	0	0	0	0	506	506
2136	0	0	0	0	508	507
2137	0	0	0	0	506	505
2138	0	0	0	0	508	508
2139	0	0	0	0	506	509
2140	0	0	0	0	509	509
2141	0	0	0	0	508	508
2142	0	0	0	0	508	507
2143	0	0	0	0	507	508
2144	0	0	0	0	507	510
2145	0	0	0	0	505	508
2146	0	0	0	0	506	505
2147	0	0	0	0	508	507
2148	0	0	0	0	509	506
2149	0	0	0	0	507	507
2150	0	0	0	0	507	506
2151	0	0	0	0	508	507
2152	0	0	0	0	505	507
2153	0	0	0	0	511	508
2154	0	0	0	0	507	506
2155	0	0	0	0	506	508
2156	0	0	0	0	507	505
2157	0	0	0	0	507	510
2158	0	0	0	0	508	506
2159	0	0	0	0	507	506
2160	0	0	0	0	507	508
2161	0	0	0	0	507	508
2162	0	0	0	0	506	507
2163	0	0	0	0	505	507
2164	0	0	0	0	505	507
2165	0	0	0	0	507	508
2166	0	0	0	0	506	507
2167	0	0	0	0	505	506
2168	0	0	0	0	507	507
2169	0	0	0	0	509	505
2170	0	0	0	0	507	506
2171	0	0	0	0	507	508
2172	0	0	0	0	507	506
2173	0	0	0	0	507	507
2174	0	0	0	0	506	505
2175	0	0	0	0	507	508
2176	0	0	0	0	508	506
2177	0	0	0	0	507	507
2178	0	0	0	0	506	506
2179	0	0	0	0	508	509
2180	0	0	0	0	507	510
2181	0	0	0	0	508	507
2182	0	0	0	0	507	508
2183	0	0	0	0	505	507
2184	0	0	0	0	508	506
2185	0	0	0	0	508	506
2186	0	0	0	0	506	508
2187	0	0	0	0	506	506
2188	0	0	0	0	508	506
2189	0	0	0	0	508	505
2190	0	0	0	0	505	509
2191	0	0	0	0	507	508
2192	0	0	0	0	507	509
2193	0	0	0	0	507	509
2194	0	0	0	0	508	506
2195	0	0	0	0	508	505
2196	0	0	0	0	507	505
2197	0	0	0	0	504	511
2198	0	0	0	0	506	508
2199	0	0	0	0	508	506
2200	0	0	0	0	507	507
2201	0	0	0	0	508	505
2202	0	0	0	0	506	504
2203	0	0	0	0	505	504
2204	0	0	0	0	505	506
2205	0	0	0	0	510	506
2206	0	0	0	0	506	505
2207	0	0	0	0	505	508
2208	0	0	0	0	507	508
2209	0	0	0	0	508	509
2210	0	0	0	0	507	508
2211	0	0	0	0	505	508
2212	0	0	0	0	508	508
2213	0	0	0	0	506	507
2214	0	0	0	0	505	506
2215	0	0	0	0	507	508
2216	0	0	0	0	507	509
2217	0	0	0	0	505	508
2218	0	0	0	0	506	507
2219	0	0	0	0	508	508
2220	0	0	0	0	506	507
2221	0	0	0	0	510	506
2222	0	0	0	0	508	507
2223	0	0	0	0	508	506
2224	0	0	0	0	507	506
2225	0	0	0	0	508	507
2226	0	0	0	0	505	507
2227	0	0	0	0	505	509
2228	0	0	0	0	506	507
2229	0	0	0	0	507	506
2230	0	0	0	0	505	507
2231	0	0	0	0	506	505
2232	0	0	0	0	507	505
2233	0	0	0	0	508	507
2234	0	0	0	0	508	507
2235	0	0	0	0	509	507
2236	0	0	0	0	508	506
2237	0	0	0	0	505	506
2238	0	0	0	0	507	508
2239	0	0	0	0	507	507
2240	0	0	0	0	508	508
2241	0	0	0	0	508	508
2242	0	0	0	0	506	507
2243	0	0	0	0	505	508
2244	0	0	0	0	507	507
2245	0	0	0	0	507	505
2246	0	0	0	0	507	506
2247	0	0	0	0	506	509
2248	0	0	0	0	507	507
2249	0	0	0	0	506	508
2250	0	0	0	0	508	506
2251	0	0	0	0	507	507
2252	0	0	0	0	506	507
2253	0	0	0	0	507	507
2254	0	0	0	0	510	505
2255	0	0	0	0	506	507
2256	0	0	0	0	507	506
2257	0	0	0	0	507	505
2258	0	0	0	0	509	508
2259	0	0	0	0	505	508
2260	0	0	0	0	508	507
2261	0	0	0	0	503	508
2262	0	0	0	0	505	506
2263	0	0	0	0	506	506
2264	0	0	0	0	506	506
2265	0	0	0	0	508	507
2266	0	0	0	0	508	508
2267	0	0	0	0	508	506
2268	0	0	0	0	507	510
2269	0	0	0	0	506	508
2270	0	0	0	0	506	508
2271	0	0	0	0	507	507
2272	0	0	0	0	507	506
2273	0	0	0	0	509	507
2274	0	0	0	0	507	507
2275	0	0	0	0	506	507
2276	0	0	0	0	507	507
2277	0	0	0	0	505	507
2278	0	0	0	0	506	506
2279	0	0	0	0	510	507
2280	0	0	0	0	508	508
2281	0	0	0	0	508	508
2282	0	0	0	0	508	506
2283	0	0	0	0	508	506
2284	0	0	0	0	508	508
2285	0	0	0	0	508	509
2286	0	0	0	0	507	507
2287	0	0	0	0	507	508
2288	0	0	0	0	507	507
2289	0	0	0	0	505	506
2290	0	0	0	0	506	505
2291	0	0	0	0	507	507
2292	0	0	0	0	503	507
2293	0	0	0	0	503	506
2294	0	0	0	0	505	507
2295	0	0	0	0	502	508
2296	0	0	0	0	502	507
2297	0	0	0	0	504	508
2298	0	0	0	0	504	506
2299	0	0	0	0	503	505
2300	0	0	0	0	505	508
2301	0	0	0	0	506	504
2302	0	0	0	0	505	507
2303	0	0	0	0	507	507
2304	0	0	0	0	507	509
2305	0	0	0	0	510	507
2306	0	0	0	0	511	506
2307	0	0	0	0	513	506
2308	0	0	0	0	511	506
2309	0	0	0	0	508	506
2310	0	0	0	0	510	507
2311	0	0	0	0	508	506
2312	0	0	0	0	504	507
2313	0	0	0	0	504	506
2314	0	0	0	0	503	509
2315	0	0	0	0	506	510
2316	0	0	0	0	504	508
2317	0	0	0	0	505	506
2318	0	0	0	0	506	506
2319	0	0	0	0	507	507
2320	0	0	0	0	507	506
2321	0	0	0	0	507	508
2322	0	0	0	0	508	507
2323	0	0	0	0	507	508
2324	0	0	0	0	504	506
2325	0	0	0	0	505	508
2326	0	0	0	0	507	505
2327	0	0	0	0	508	507
2328	0	0	0	0	507	508
2329	0	0	0	0	507	508
2330	0	0	0	0	508	507
2331	0	0	0	0	508	508
2332	0	0	0	0	508	507
2333	0	0	0	0	508	506
2334	0	0	0	0	508	508
2335	0	0	0	0	510	508
2336	0	0	0	0	509	507
2337	0	0	0	0	507	507
2338	0	0	0	0	507	508
2339	0	0	0	0	507	507
2340	0	0	0	0	505	507
2341	0	0	0	0	506	505
2342	0	0	0	0	505	508
2343	0	0	0	0	506	508
2344	0	0	0	0	507	508
2345	0	0	0	0	508	505
2346	0	0	0	0	507	506
2347	0	0	0	0	507	508
2348	0	0	0	0	508	505
2349	0	0	0	0	507	504
2350	0	0	0	0	508	508
2351	0	0	0	0	507	506
2352	0	0	0	0	509	505
2353	0	0	0	0	509	508
2354	0	0	0	0	507	508
2355	0	0	0	0	505	509
2356	0	0	0	0	505	508
2357	0	0	0	0	507	508
2358	0	0	0	0	509	506
2359	0	0	0	0	506	505
2360	0	0	0	0	505	506
2361	0	0	0	0	507	508
2362	0	0	0	0	506	506
2363	0	0	0	0	506	506
2364	0	0	0	0	508	508
2365	0	0	0	0	507	507
2366	0	0	0	0	507	507
2367	0	0	0	0	507	506
2368	0	0	0	0	508	509
2369	0	0	0	0	507	508
2370	0	0	0	0	507	506
2371	0	0	0	0	507	506
2372	0	0	0	0	507	507
2373	0	0	0	0	507	505
2374	0	0	0	0	507	505
2375	0	0	0	0	506	507
2376	0	0	0	0	506	507
2377	0	0	0	0	505	506
2378	0	0	0	0	507	508
2379	0	0	0	0	507	508
2380	0	0	0	0	505	508
2381	0	0	0	0	505	510
2382	0	0	0	0	508	505
2383	0	0	0	0	508	505
2384	0	0	0	0	508	507
2385	0	0	0	0	506	507
2386	0	0	0	0	507	508
2387	0	0	0	0	509	507
2388	0	0	0	0	507	509
2389	0	0	0	0	504	508
2390	0	0	0	0	507	507
2391	0	0	0	0	506	506
2392	0	0	0	0	507	505
2393	0	0	0	0	507	504
2394	0	0	0	0	506	506
2395	0	0	0	0	510	507
2396	0	0	0	0	507	508
2397	0	0	0	0	505	507
2398	0	0	0	0	506	508
2399	0	0	0	0	507	507
2400	0	0	0	0	507	508
2401	0	0	0	0	506	508
2402	0	0	0	0	505	507
2403	0	0	0	0	506	506
2404	0	0	0	0	505	505
2405	0	0	0	0	507	507
2406	0	0	0	0	507	508
2407	0	0	0	0	508	508
2408	0	0	0	0	505	507
2409	0	0	0	0	509	505
2410	0	0	0	0	507	508
2411	0	0	0	0	508	508
2412	0	0	0	0	505	507
2413	0	0	0	0	507	507
2414	0	0	0	0	505	505
2415	0	0	0	0	508	505
2416	0	0	0	0	506	507
2417	0	0	0	0	505	508
2418	0	0	0	0	507	508
2419	0	0	0	0	507	508
2420	0	0	0	0	505	508
2421	0	0	0	0	508	507
2422	0	0	0	0	506	508
2423	0	0	0	0	511	508
2424	0	0	0	0	507	507
2425	0	0	0	0	510	507
2426	0	0	0	0	508	505
2427	0	0	0	0	507	505
2428	0	0	0	0	508	505
2429	0	0	0	0	505	508
2430	0	0	0	0	504	506
2431	0	0	0	0	506	507
2432	0	0	0	0	507	507
2433	0	0	0	0	506	506
2434	0	0	0	0	505	506
2435	0	0	0	0	507	507
2436	0	0	0	0	505	506
2437	0	0	0	0	506	507
2438	0	0	0	0	507	507
2439	0	0	0	0	506	507
2440	0	0	0	0	507	510
2441	0	0	0	0	507	507
2442	0	0	0	0	508	508
2443	0	0	0	0	508	508
2444	0	0	0	0	508	505
2445	0	0	0	0	506	507
2446	0	0	0	0	508	507
2447	0	0	0	0	508	507
2448	0	0	0	0	509	506
2449	0	0	0	0	508	507
2450	0	0	0	0	507	506
2451	0	0	0	0	507	506
2452	0	0	0	0	510	507
2453	0	0	0	0	509	508
2454	0	0	0	0	509	508
2455	0	0	0	0	508	507
2456	0	0	0	0	507	508
2457	0	0	0	0	508	508
2458	0	0	0	0	505	506
2459	0	0	0	0	505	504
2460	0	0	0	0	505	507
2461	0	0	0	0	503	506
2462	0	0	0	0	504	506
2463	0	0	0	0	507	505
2464	0	0	0	0	503	507
2465	0	0	0	0	504	507
2466	0	0	0	0	504	506
2467	0	0	0	0	507	508
2468	0	0	0	0	511	508
2469	0	0	0	0	510	508
2470	0	0	0	0	509	505
2471	0	0	0	0	508	508
2472	0	0	0	0	505	509
2473	0	0	0	0	508	507
2474	0	0	0	0	507	507
2475	0	0	0	0	506	506
2476	0	0	0	0	508	507
2477	0	0	0	0	505	506
2478	0	0	0	0	505	507
2479	0	0	0	0	504	506
2480	0	0	0	0	508	506
2481	0	0	0	0	507	508
2482	0	0	0	0	510	507
2483	0	0	0	0	509	508
2484	0	0	0	0	507	507
2485	0	0	0	0	510	509
2486	0	0	0	0	508	507
2487	0	0	0	0	509	507
2488	0	0	0	0	506	507
2489	0	0	0	0	506	506
2490	0	0	0	0	505	505
2491	0	0	0	0	507	508
2492	0	0	0	0	508	508
2493	0	0	0	0	507	507
2494	0	0	0	0	505	507
2495	0	0	0	0	508	505
2496	0	0	0	0	508	508
2497	0	0	0	0	509	508
2498	0	0	0	0	507	508
2499	0	0	0	0	505	507
2500	0	0	0	0	507	507
2501	0	0	0	0	507	507
2502	0	0	0	0	508	508
2503	0	0	0	0	507	507
2504	0	0	0	0	508	506
2505	0	0	0	0	507	506
2506	0	0	0	0	505	506
2507	0	0	0	0	507	509
2508	0	0	0	0	507	507
2509	0	0	0	0	507	508
2510	0	0	0	0	507	506
2511	0	0	0	0	507	508
2512	0	0	0	0	506	506
2513	0	0	0	0	507	506
2514	0	0	0	0	509	508
2515	0	0	0	0	506	505
2516	0	0	0	0	507	507
2517	0	0	0	0	507	507
2518	0	0	0	0	508	506
2519	0	0	0	0	506	506
2520	0	0	0	0	507	506
2521	0	0	0	0	508	507
2522	0	0	0	0	508	508
2523	0	0	0	0	508	508
2524	0	0	0	0	508	505
2525	0	0	0	0	507	508
2526	0	0	0	0	507	508
2527	0	0	0	0	507	506
2528	0	0	0	0	506	507
2529	0	0	0	0	508	504
2530	0	0	0	0	505	507
2531	0	0	0	0	506	508
2532	0	0	0	0	503	507
2533	0	0	0	0	506	508
2534	0	0	0	0	508	508
2535	0	0	0	0	507	507
2536	0	0	0	0	505	507
2537	0	0	0	0	506	505
2538	0	0	0	0	508	506
2539	0	0	0	0	507	506
2540	0	0	0	0	508	506
2541	0	0	0	0	508	509
2542	0	0	0	0	510	507
2543	0	0	0	0	510	507
2544	0	0	0	0	508	506
2545	0	0	0	0	508	508
2546	0	0	0	0	506	508
2547	0	0	0	0	507	507
2548	0	0	0	0	508	504
2549	0	0	0	0	506	506
2550	0	0	0	0	508	507
2551	0	0	0	0	506	506
2552	0	0	0	0	507	507
2553	0	0	0	0	508	505
2554	0	0	0	0	507	505
2555	0	0	0	0	507	508
2556	0	0	0	0	507	505
2557	0	0	0	0	509	508
2558	0	0	0	0	507	508
2559	0	0	0	0	505	505
2560	0	0	0	0	506	507
2561	0	0	0	0	505	507
2562	0	0	0	0	505	507
2563	0	0	0	0	506	507
2564	0	0	0	0	506	507
2565	0	0	0	0	508	507
2566	0	0	0	0	508	507
2567	0	0	0	0	508	507
2568	0	0	0	0	506	509
2569	0	0	0	0	507	505
2570	0	0	0	0	505	507
2571	0	0	0	0	507	508
2572	0	0	0	0	507	505
2573	0	0	0	0	509	507
2574	0	0	0	0	505	507
2575	0	0	0	0	506	507
2576	0	0	0	0	506	507
2577	0	0	0	0	508	507
2578	0	0	0	0	506	505
2579	0	0	0	0	507	508
2580	0	0	0	0	508	505
2581	0	0	0	0	510	508
2582	0	0	0	0	507	505
2583	0	0	0	0	508	510
2584	0	0	0	0	510	508
2585	0	0	0	0	507	507
2586	0	0	0	0	507	508
2587	0	0	0	0	509	507
2588	0	0	0	0	507	507
2589	0	0	0	0	507	506
2590	0	0	0	0	508	507
2591	0	0	0	0	507	506
2592	0	0	0	0	507	506
2593	0	0	0	0	507	507
2594	0	0	0	0	507	509
2595	0	0	0	0	505	509
2596	0	0	0	0	505	507
2597	0	0	0	0	506	507
2598	0	0	0	0	505	506
2599	0	0	0	0	507	507
2600	0	0	0	0	506	506
2601	0	0	0	0	509	507
2602	0	0	0	0	505	507
2603	0	0	0	0	507	508
2604	0	0	0	0	506	508
2605	0	0	0	0	506	508
2606	0	0	0	0	505	505
2607	0	0	0	0	507	505
2608	0	0	0	0	507	508
2609	0	0	0	0	507	508
2610	0	0	0	0	508	508
2611	0	0	0	0	506	507
2612	0	0	0	0	506	504
2613	0	0	0	0	506	507
2614	0	0	0	0	504	507
2615	0	0	0	0	506	507
2616	0	0	0	0	505	507
2617	0	0	0	0	508	505
2618	0	0	0	0	506	508
2619	0	0	0	0	507	509
2620	0	0	0	0	507	507
2621	0	0	0	0	508	507
2622	0	0	0	0	507	505
2623	0	0	0	0	505	506
2624	0	0	0	0	507	508
2625	0	0	0	0	509	507
2626	0	0	0	0	508	505
2627	0	0	0	0	508	507
2628	0	0	0	0	506	507
2629	0	0	0	0	507	506
2630	0	0	0	0	507	508
2631	0	0	0	0	505	507
2632	0	0	0	0	506	507
2633	0	0	0	0	507	505
2634	0	0	0	0	505	508
2635	0	0	0	0	507	506
2636	0	0	0	0	507	506
2637	0	0	0	0	508	506
2638	0	0	0	0	506	506
2639	0	0	0	0	505	506
2640	0	0	0	0	505	504
2641	0	0	0	0	509	503
2642	0	0	0	0	509	505
2643	0	0	0	0	507	504
2644	0	0	0	0	507	504
2645	0	0	0	0	507	506
2646	0	0	0	0	507	505
2647	0	0	0	0	506	506
2648	0	0	0	0	504	508
2649	0	0	0	0	507	504
2650	0	0	0	0	505	505
2651	0	0	0	0	508	507
2652	0	0	0	0	508	507
2653	0	0	0	0	508	507
2654	0	0	0	0	508	507
2655	0	0	0	0	507	508
2656	0	0	0	0	505	509
2657	0	0	0	0	508	508
2658	0	0	0	0	505	509
2659	0	0	0	0	505	505
2660	0	0	0	0	507	508
2661	0	0	0	0	507	510
2662	0	0	0	0	508	510
2663	0	0	0	0	507	510
2664	0	0	0	0	507	512
2665	0	0	0	0	508	511
2666	0	0	0	0	509	510
2667	0	0	0	0	508	510
2668	0	0	0	0	507	510
2669	0	0	0	0	507	510
2670	0	0	0	0	508	511
2671	0	0	0	0	508	510
2672	0	0	0	0	507	510
2673	0	0	0	0	507	509
2674	0	0	0	0	506	508
2675	0	0	0	0	507	510
2676	0	0	0	0	507	507
2677	0	0	0	0	507	507
2678	0	0	0	0	507	507
2679	0	0	0	0	506	505
2680	0	0	0	0	509	507
2681	0	0	0	0	508	504
2682	0	0	0	0	508	504
2683	0	0	0	0	507	504
2684	0	0	0	0	508	504
2685	0	0	0	0	506	506
2686	0	0	0	0	507	504
2687	0	0	0	0	507	504
2688	0	0	0	0	507	508
2689	0	0	0	0	506	504
2690	0	0	0	0	507	508
2691	0	0	0	0	507	504
2692	0	0	0	0	508	504
2693	0	0	0	0	505	507
2694	0	0	0	0	506	506
2695	0	0	0	0	508	505
2696	0	0	0	0	508	505
2697	0	0	0	0	508	506
2698	0	0	0	0	507	505
2699	0	0	0	0	509	507
2700	0	0	0	0	507	505
2701	0	0	0	0	505	506
2702	0	0	0	0	506	505
2703	0	0	0	0	504	507
2704	0	0	0	0	508	505
2705	0	0	0	0	508	507
2706	0	0	0	0	505	507
2707	0	0	0	0	508	506
2708	0	0	0	0	506	506
2709	0	0	0	0	506	508
2710	0	0	0	0	507	509
2711	0	0	0	0	504	506
2712	0	0	0	0	507	508
2713	0	0	0	0	507	507
2714	0	0	0	0	506	506
2715	0	0	0	0	506	507
2716	0	0	0	0	506	507
2717	0	0	0	0	507	508
2718	0	0	0	0	507	506
2719	0	0	0	0	508	507
2720	0	0	0	0	508	508
2721	0	0	0	0	508	507
2722	0	0	0	0	509	505
2723	0	0	0	0	508	508
2724	0	0	0	0	506	507
2725	0	0	0	0	508	508
2726	0	0	0	0	509	508
2727	0	0	0	0	505	506
2728	0	0	0	0	507	508
2729	0	0	0	0	505	506
2730	0	0	0	0	505	507
2731	0	0	0	0	506	507
2732	0	0	0	0	508	506
2733	0	0	0	0	508	508
2734	0	0	0	0	506	507
2735	0	0	0	0	508	506
2736	0	0	0	0	506	506
2737	0	0	0	0	508	508
2738	0	0	0	0	508	507
2739	0	0	0	0	506	507
2740	0	0	0	0	508	508
2741	0	0	0	0	507	506
2742	0	0	0	0	504	508
2743	0	0	0	0	506	508
2744	0	0	0	0	505	507
2745	0	0	0	0	505	506
2746	0	0	0	0	507	508
2747	0	0	0	0	509	509
2748	0	0	0	0	508	507
2749	0	0	0	0	507	506
2750	0	0	0	0	507	506
2751	0	0	0	0	506	507
2752	0	0	0	0	508	507
2753	0	0	0	0	507	507
2754	0	0	0	0	506	507
2755	0	0	0	0	509	504
2756	0	0	0	0	507	507
2757	0	0	0	0	507	509
2758	0	0	0	0	507	506
2759	0	0	0	0	506	507
2760	0	0	0	0	506	506
2761	0	0	0	0	507	507
2762	0	0	0	0	508	508
2763	0	0	0	0	508	505
2764	0	0	0	0	508	507
2765	0	0	0	0	507	507
2766	0	0	0	0	507	508
2767	0	0	0	0	507	509
2768	0	0	0	0	507	506
2769	0	0	0	0	505	507
2770	0	0	0	0	507	508
2771	0	0	0	0	505	507
2772	0	0	0	0	507	507
2773	0	0	0	0	508	507
2774	0	0	0	0	505	504
2775	0	0	0	0	507	507
2776	0	0	0	0	507	508
2777	0	0	0	0	505	506
2778	0	0	0	0	508	508
2779	0	0	0	0	509	507
2780	0	0	0	0	507	507
2781	0	0	0	0	507	507
2782	0	0	0	0	507	507
2783	0	0	0	0	506	508
2784	0	0	0	0	505	507
2785	0	0	0	0	505	508
2786	0	0	0	0	506	508
2787	0	0	0	0	507	505
2788	0	0	0	0	507	505
2789	0	0	0	0	505	508
2790	0	0	0	0	507	506
2791	0	0	0	0	505	508
2792	0	0	0	0	508	507
2793	0	0	0	0	505	508
2794	0	0	0	0	506	507
2795	0	0	0	0	507	509
2796	0	0	0	0	508	505
2797	0	0	0	0	509	507
2798	0	0	0	0	509	507
2799	0	0	0	0	507	507
2800	0	0	0	0	507	507
2801	0	0	0	0	506	507
2802	0	0	0	0	506	507
2803	0	0	0	0	505	505
2804	0	0	0	0	507	506
2805	0	0	0	0	507	507
2806	0	0	0	0	505	507
2807	0	0	0	0	507	505
2808	0	0	0	0	507	506
2809	0	0	0	0	508	506
2810	0	0	0	0	508	507
2811	0	0	0	0	506	508
2812	0	0	0	0	509	508
2813	0	0	0	0	507	509
2814	0	0	0	0	508	508
2815	0	0	0	0	506	507
2816	0	0	0	0	506	507
2817	0	0	0	0	505	508
2818	0	0	0	0	508	507
2819	0	0	0	0	507	507
2820	0	0	0	0	508	506
2821	0	0	0	0	509	509
2822	0	0	0	0	504	505
2823	0	0	0	0	508	506
2824	0	0	0	0	505	508
2825	0	0	0	0	506	508
2826	0	0	0	0	505	508
2827	0	0	0	0	505	507
2828	0	0	0	0	507	507
2829	0	0	0	0	508	506
2830	0	0	0	0	509	506
2831	0	0	0	0	507	506
2832	0	0	0	0	505	507
2833	0	0	0	0	507	506
2834	0	0	0	0	506	507
2835	0	0	0	0	507	506
2836	0	0	0	0	507	508
2837	0	0	0	0	507	507
2838	0	0	0	0	508	507
2839	0	0	0	0	506	507
2840	0	0	0	0	508	508
2841	0	0	0	0	508	508
2842	0	0	0	0	507	506
2843	0	0	0	0	509	506
2844	0	0	0	0	504	506
2845	0	0	0	0	506	507
2846	0	0	0	0	508	508
2847	0	0	0	0	507	505
2848	0	0	0	0	507	508
2849	0	0	0	0	506	505
2850	0	0	0	0	508	505
2851	0	0	0	0	505	506
2852	0	0	0	0	508	507
2853	0	0	0	0	508	507
2854	0	0	0	0	508	509
2855	0	0	0	0	505	508
2856	0	0	0	0	505	507
2857	0	0	0	0	506	507
2858	0	0	0	0	508	507
2859	0	0	0	0	507	508
2860	0	0	0	0	505	507
2861	0	0	0	0	506	505
2862	0	0	0	0	507	505
2863	0	0	0	0	508	507
2864	0	0	0	0	506	508
2865	0	0	0	0	507	508
2866	0	0	0	0	507	507
2867	0	0	0	0	508	508
2868	0	0	0	0	507	507
2869	0	0	0	0	505	509
2870	0	0	0	0	507	507
2871	0	0	0	0	506	507
2872	0	0	0	0	507	507
2873	0	0	0	0	507	505
2874	0	0	0	0	507	507
2875	0	0	0	0	508	509
2876	0	0	0	0	508	506
2877	0	0	0	0	507	505
2878	0	0	0	0	507	508
2879	0	0	0	0	506	507
2880	0	0	0	0	507	508
2881	0	0	0	0	506	508
2882	0	0	0	0	506	508
2883	0	0	0	0	507	507
2884	0	0	0	0	508	506
2885	0	0	0	0	505	506
2886	0	0	0	0	507	506
2887	0	0	0	0	508	507
2888	0	0	0	0	505	508
2889	0	0	0	0	509	505
2890	0	0	0	0	508	507
2891	0	0	0	0	507	506
2892	0	0	0	0	505	507
2893	0	0	0	0	506	507
2894	0	0	0	0	507	507
2895	0	0	0	0	508	508
2896	0	0	0	0	507	507
2897	0	0	0	0	507	508
2898	0	0	0	0	507	508
2899	0	0	0	0	507	506
2900	0	0	0	0	507	507
2901	0	0	0	0	505	508
2902	0	0	0	0	508	508
2903	0	0	0	0	507	506
2904	0	0	0	0	506	506
2905	0	0	0	0	508	507
2906	0	0	0	0	508	507
2907	0	0	0	0	508	508
2908	0	0	0	0	506	508
2909	0	0	0	0	504	508
2910	0	0	0	0	507	508
2911	0	0	0	0	505	506
2912	0	0	0	0	506	505
2913	0	0	0	0	508	508
2914	0	0	0	0	508	508
2915	0	0	0	0	508	506
2916	0	0	0	0	507	507
2917	0	0	0	0	506	508
2918	0	0	0	0	506	507
2919	0	0	0	0	505	506
2920	0	0	0	0	506	507
2921	0	0	0	0	508	508
2922	0	0	0	0	507	507
2923	0	0	0	0	510	508
2924	0	0	0	0	507	507
2925	0	0	0	0	508	507
2926	0	0	0	0	506	505
2927	0	0	0	0	508	504
2928	0	0	0	0	508	507
2929	0	0	0	0	508	508
2930	0	0	0	0	507	507
2931	0	0	0	0	506	505
2932	0	0	0	0	508	506
2933	0	0	0	0	508	507
2934	0	0	0	0	507	507
2935	0	0	0	0	508	509
2936	0	0	0	0	507	507
2937	0	0	0	0	508	506
2938	0	0	0	0	507	507
2939	0	0	0	0	508	506
2940	0	0	0	0	507	507
2941	0	0	0	0	505	508
2942	0	0	0	0	507	506
2943	0	0	0	0	507	507
2944	0	0	0	0	506	506
2945	0	0	0	0	506	508
2946	0	0	0	0	505	506
2947	0	0	0	0	508	509
2948	0	0	0	0	508	508
2949	0	0	0	0	507	508
2950	0	0	0	0	507	508
2951	0	0	0	0	506	507
2952	0	0	0	0	508	505
2953	0	0	0	0	505	508
2954	0	0	0	0	506	508
2955	0	0	0	0	508	507
2956	0	0	0	0	505	507
2957	0	0	0	0	507	508
2958	0	0	0	0	506	506
2959	0	0	0	0	507	507
2960	0	0	0	0	507	505
2961	0	0	0	0	508	505
2962	0	0	0	0	509	506
2963	0	0	0	0	507	507
2964	0	0	0	0	508	507
2965	0	0	0	0	507	507
2966	0	0	0	0	506	507
2967	0	0	0	0	508	506
2968	0	0	0	0	507	507
2969	0	0	0	0	508	509
2970	0	0	0	0	508	508
2971	0	0	0	0	505	507
2972	0	0	0	0	507	506
2973	0	0	0	0	508	508
2974	0	0	0	0	506	507
2975	0	0	0	0	506	506
2976	0	0	0	0	506	505
2977	0	0	0	0	505	508
2978	0	0	0	0	508	505
2979	0	0	0	0	507	506
2980	0	0	0	0	507	506
2981	0	0	0	0	507	507
2982	0	0	0	0	506	509
2983	0	0	0	0	508	508
2984	0	0	0	0	507	506
2985	0	0	0	0	509	507
2986	0	0	0	0	508	507
2987	0	0	0	0	505	508
2988	0	0	0	0	507	507
2989	0	0	0	0	506	505
2990	0	0	0	0	508	508
2991	0	0	0	0	508	507
2992	0	0	0	0	508	507
2993	0	0	0	0	507	508
2994	0	0	0	0	507	509
2995	0	0	0	0	507	508
2996	0	0	0	0	505	506
2997	0	0	0	0	508	505
2998	0	0	0	0	506	508
2999	0	0	0	0	507	508
3000	0	0	0	0	507	508
3001	0	0	0	0	506	506
3002	0	0	0	0	507	505
3003	0	0	0	0	508	506
3004	0	0	0	0	506	506
3005	0	0	0	0	505	506
3006	0	0	0	0	506	507
3007	0	0	0	0	506	507
3008	0	0	0	0	507	507
3009	0	0	0	0	505	508
3010	0	0	0	0	506	508
3011	0	0	0	0	505	507
3012	0	0	0	0	509	506
3013	0	0	0	0	511	504
3014	0	0	0	0	505	507
3015	0	0	0	0	507	507
3016	0	0	0	0	505	505
3017	0	0	0	0	507	507
3018	0	0	0	0	508	507
3019	0	0	0	0	508	509
3020	0	0	0	0	508	508
3021	0	0	0	0	508	507
3022	0	0	0	0	508	507
3023	0	0	0	0	507	507
3024	0	0	0	0	506	504
3025	0	0	0	0	509	506
3026	0	0	0	0	507	506
3027	0	0	0	0	508	507
3028	0	0	0	0	508	505
3029	0	0	0	0	505	508
3030	0	0	0	0	510	507
3031	0	0	0	0	506	507
3032	0	0	0	0	507	507
3033	0	0	0	0	509	507
3034	0	0	0	0	507	506
3035	0	0	0	0	504	508
3036	0	0	0	0	505	508
3037	0	0	0	0	507	508
3038	0	0	0	0	508	507
3039	0	0	0	0	507	506
3040	0	0	0	0	508	506
3041	0	0	0	0	505	509
3042	0	0	0	0	508	508
3043	0	0	0	0	508	509
3044	0	0	0	0	505	508
3045	0	0	0	0	506	506
3046	0	0	0	0	505	507
3047	0	0	0	0	508	505
3048	0	0	0	0	507	506
3049	0	0	0	0	504	508
3050	0	0	0	0	504	506
3051	0	0	0	0	507	506
3052	0	0	0	0	508	507
3053	0	0	0	0	508	507
3054	0	0	0	0	507	508
3055	0	0	0	0	509	507
3056	0	0	0	0	508	506
3057	0	0	0	0	508	506
3058	0	0	0	0	507	506
3059	0	0	0	0	507	507
3060	0	0	0	0	505	508
3061	0	0	0	0	507	508
3062	0	0	0	0	506	508
3063	0	0	0	0	506	510
3064	0	0	0	0	504	507
3065	0	0	0	0	508	507
3066	0	0	0	0	508	505
3067	0	0	0	0	508	506
3068	0	0	0	0	507	508
3069	0	0	0	0	506	507
3070	0	0	0	0	507	508
3071	0	0	0	0	507	508
3072	0	0	0	0	507	508
3073	0	0	0	0	508	507
3074	0	0	0	0	508	505
3075	0	0	0	0	507	507
3076	0	0	0	0	506	504
3077	0	0	0	0	507	507
3078	0	0	0	0	508	506
3079	0	0	0	0	508	506
3080	0	0	0	0	508	508
3081	0	0	0	0	507	506
3082	0	0	0	0	508	506
3083	0	0	0	0	507	508
3084	0	0	0	0	507	505
3085	0	0	0	0	507	506
3086	0	0	0	0	507	508
3087	0	0	0	0	508	509
3088	0	0	0	0	508	507
3089	0	0	0	0	508	508
3090	0	0	0	0	508	507
3091	0	0	0	0	505	507
3092	0	0	0	0	504	507
3093	0	0	0	0	508	507
3094	0	0	0	0	506	506
3095	0	0	0	0	506	507
3096	0	0	0	0	506	508
3097	0	0	0	0	507	505
3098	0	0	0	0	508	506
3099	0	0	0	0	508	507
3100	0	0	0	0	507	508
3101	0	0	0	0	507	508
3102	0	0	0	0	507	507
3103	0	0	0	0	508	507
3104	0	0	0	0	507	508
3105	0	0	0	0	509	508
3106	0	0	0	0	507	505
3107	0	0	0	0	507	505
3108	0	0	0	0	506	510
3109	0	0	0	0	507	509
3110	0	0	0	0	508	507
3111	0	0	0	0	505	507
3112	0	0	0	0	506	507
3113	0	0	0	0	508	508
3114	0	0	0	0	507	506
3115	0	0	0	0	507	509
3116	0	0	0	0	508	507
3117	0	0	0	0	506	509
3118	0	0	0	0	508	508
3119	0	0	0	0	508	507
3120	0	0	0	0	504	505
3121	0	0	0	0	505	505
3122	0	0	0	0	507	507
3123	0	0	0	0	508	506
3124	0	0	0	0	505	505
3125	0	0	0	0	508	506
3126	0	0	0	0	508	506
3127	0	0	0	0	507	507
3128	0	0	0	0	507	508
3129	0	0	0	0	507	507
3130	0	0	0	0	506	507
3131	0	0	0	0	507	504
3132	0	0	0	0	506	506
3133	0	0	0	0	506	508
3134	0	0	0	0	509	507
3135	0	0	0	0	507	507
3136	0	0	0	0	506	509
3137	0	0	0	0	507	507
3138	0	0	0	0	507	505
3139	0	0	0	0	506	507
3140	0	0	0	0	508	506
3141	0	0	0	0	505	507
3142	0	0	0	0	506	506
3143	0	0	0	0	505	507
3144	0	0	0	0	507	508
3145	0	0	0	0	506	510
3146	0	0	0	0	508	508
3147	0	0	0	0	508	506
3148	0	0	0	0	507	507
3149	0	0	0	0	507	508
3150	0	0	0	0	507	507
3151	0	0	0	0	507	508
3152	0	0	0	0	510	505
3153	0	0	0	0	509	505
3154	0	0	0	0	508	506
3155	0	0	0	0	508	506
3156	0	0	0	0	508	508
3157	0	0	0	0	507	505
3158	0	0	0	0	508	509
3159	0	0	0	0	508	507
3160	0	0	0	0	507	507
3161	0	0	0	0	507	507
3162	0	0	0	0	507	506
3163	0	0	0	0	506	505
3164	0	0	0	0	504	506
3165	0	0	0	0	506	508
3166	0	0	0	0	507	507
3167	0	0	0	0	506	506
3168	0	0	0	0	505	508
3169	0	0	0	0	507	505
3170	0	0	0	0	506	507
3171	0	0	0	0	507	507
3172	0	0	0	0	507	508
3173	0	0	0	0	509	505
3174	0	0	0	0	506	506
3175	0	0	0	0	507	507
3176	0	0	0	0	505	506
3177	0	0	0	0	505	508
3178	0	0	0	0	506	507
3179	0	0	0	0	508	507
3180	0	0	0	0	505	506
3181	0	0	0	0	507	507
3182	0	0	0	0	507	508
3183	0	0	0	0	507	509
3184	0	0	0	0	506	508
3185	0	0	0	0	506	506
3186	0	0	0	0	505	506
3187	0	0	0	0	507	507
3188	0	0	0	0	508	507
3189	0	0	0	0	508	506
3190	0	0	0	0	507	505
3191	0	0	0	0	506	506
3192	0	0	0	0	507	507
3193	0	0	0	0	508	508
3194	0	0	0	0	505	507
3195	0	0	0	0	507	505
3196	0	0	0	0	507	506
3197	0	0	0	0	506	506
3198	0	0	0	0	508	508
3199	0	0	0	0	507	508
3200	0	0	0	0	508	509
3201	0	0	0	0	508	506
3202	0	0	0	0	506	506
3203	0	0	0	0	508	506
3204	0	0	0	0	507	507
3205	0	0	0	0	508	506
3206	0	0	0	0	507	506
3207	0	0	0	0	507	508
3208	0	0	0	0	508	507
3209	0	0	0	0	508	507
3210	0	0	0	0	506	508
3211	0	0	0	0	506	508
3212	0	0	0	0	507	505
3213	0	0	0	0	508	508
3214	0	0	0	0	507	509
3215	0	0	0	0	506	509
3216	0	0	0	0	508	506
3217	0	0	0	0	508	506
3218	0	0	0	0	507	508
3219	0	0	0	0	508	507
3220	0	0	0	0	508	507
3221	0	0	0	0	504	506
3222	0	0	0	0	505	507
3223	0	0	0	0	508	505
3224	0	0	0	0	508	508
3225	0	0	0	0	505	509
3226	0	0	0	0	508	508
3227	0	0	0	0	507	507
3228	0	0	0	0	505	507
3229	0	0	0	0	505	506
3230	0	0	0	0	508	506
3231	0	0	0	0	508	507
3232	0	0	0	0	507	505
3233	0	0	0	0	506	505
3234	0	0	0	0	507	508
3235	0	0	0	0	507	509
3236	0	0	0	0	510	507
3237	0	0	0	0	510	508
3238	0	0	0	0	507	509
3239	0	0	0	0	506	509
3240	0	0	0	0	504	505
3241	0	0	0	0	507	506
3242	0	0	0	0	507	507
3243	0	0	0	0	506	506
3244	0	0	0	0	508	506
3245	0	0	0	0	508	507
3246	0	0	0	0	508	505
3247	0	0	0	0	506	509
3248	0	0	0	0	509	507
3249	0	0	0	0	506	507
3250	0	0	0	0	508	506
3251	0	0	0	0	507	508
3252	0	0	0	0	506	506
3253	0	0	0	0	507	506
3254	0	0	0	0	505	505
3255	0	0	0	0	507	508
3256	0	0	0	0	507	506
3257	0	0	0	0	506	508
3258	0	0	0	0	508	507
3259	0	0	0	0	506	507
3260	0	0	0	0	505	507
3261	0	0	0	0	508	507
3262	0	0	0	0	505	507
3263	0	0	0	0	505	506
3264	0	0	0	0	507	507
3265	0	0	0	0	508	508
3266	0	0	0	0	506	507
3267	0	0	0	0	505	507
3268	0	0	0	0	505	509
3269	0	0	0	0	508	506
3270	0	0	0	0	507	505
3271	0	0	0	0	506	507
3272	0	0	0	0	508	507
3273	0	0	0	0	510	506
3274	0	0	0	0	507	506
3275	0	0	0	0	507	509
3276	0	0	0	0	509	509
3277	0	0	0	0	508	507
3278	0	0	0	0	507	505
3279	0	0	0	0	508	507
3280	0	0	0	0	507	505
3281	0	0	0	0	506	507
3282	0	0	0	0	507	506
3283	0	0	0	0	508	506
3284	0	0	0	0	508	508
3285	0	0	0	0	506	508
3286	0	0	0	0	507	507
3287	0	0	0	0	507	510
3288	0	0	0	0	508	508
3289	0	0	0	0	504	508
3290	0	0	0	0	505	505
3291	0	0	0	0	507	507
3292	0	0	0	0	504	508
3293	0	0	0	0	507	505
3294	0	0	0	0	506	507
3295	0	0	0	0	509	507
3296	0	0	0	0	507	509
3297	0	0	0	0	509	508
3298	0	0	0	0	506	508
3299	0	0	0	0	504	507
3300	0	0	0	0	508	505
3301	0	0	0	0	505	506
3302	0	0	0	0	507	507
3303	0	0	0	0	505	505
3304	0	0	0	0	507	507
3305	0	0	0	0	508	505
3306	0	0	0	0	505	507
3307	0	0	0	0	507	507
3308	0	0	0	0	508	506
3309	0	0	0	0	507	506
3310	0	0	0	0	507	507
3311	0	0	0	0	507	505
3312	0	0	0	0	505	506
3313	0	0	0	0	507	506
3314	0	0	0	0	506	508
3315	0	0	0	0	507	508
3316	0	0	0	0	507	507
3317	0	0	0	0	508	507
3318	0	0	0	0	508	507
3319	0	0	0	0	508	507
3320	0	0	0	0	506	508
3321	0	0	0	0	506	508
3322	0	0	0	0	508	509
3323	0	0	0	0	506	509
3324	0	0	0	0	506	508
3325	0	0	0	0	509	506
3326	0	0	0	0	507	507
3327	0	0	0	0	506	508
3328	0	0	0	0	507	506
3329	0	0	0	0	505	507
3330	0	0	0	0	506	509
3331	0	0	0	0	507	505
3332	0	0	0	0	507	507
3333	0	0	0	0	509	508
3334	0	0	0	0	505	506
3335	0	0	0	0	506	504
3336	0	0	0	0	508	506
3337	0	0	0	0	505	508
3338	0	0	0	0	506	507
3339	0	0	0	0	505	508
3340	0	0	0	0	507	507
3341	0	0	0	0	506	506
3342	0	0	0	0	506	507
3343	0	0	0	0	506	507
3344	0	0	0	0	507	507
3345	0	0	0	0	507	507
3346	0	0	0	0	507	507
3347	0	0	0	0	508	505
3348	0	0	0	0	508	508
3349	0	0	0	0	508	505
3350	0	0	0	0	508	507
3351	0	0	0	0	507	508
3352	0	0	0	0	508	505
3353	0	0	0	0	505	508
3354	0	0	0	0	507	507
3355	0	0	0	0	508	506
3356	0	0	0	0	507	508
3357	0	0	0	0	506	507
3358	0	0	0	0	506	508
3359	0	0	0	0	506	504
3360	0	0	0	0	508	505
3361	0	0	0	0	508	506
3362	0	0	0	0	507	506
3363	0	0	0	0	506	508
3364	0	0	0	0	508	509
3365	0	0	0	0	508	507
3366	0	0	0	0	507	508
3367	0	0	0	0	505	508
3368	0	0	0	0	506	507
3369	0	0	0	0	506	507
3370	0	0	0	0	506	507
3371	0	0	0	0	507	506
3372	0	0	0	0	506	506
3373	0	0	0	0	509	509
3374	0	0	0	0	508	507
3375	0	0	0	0	508	507
3376	0	0	0	0	507	508
3377	0	0	0	0	507	507
3378	0	0	0	0	506	505
3379	0	0	0	0	509	505
3380	0	0	0	0	505	507
3381	0	0	0	0	507	506
3382	0	0	0	0	507	508
3383	0	0	0	0	508	507
3384	0	0	0	0	507	508
3385	0	0	0	0	507	505
3386	0	0	0	0	506	505
3387	0	0	0	0	507	507
3388	0	0	0	0	506	507
3389	0	0	0	0	506	505
3390	0	0	0	0	506	506
3391	0	0	0	0	505	507
3392	0	0	0	0	507	508
3393	0	0	0	0	511	506
3394	0	0	0	0	506	505
3395	0	0	0	0	505	507
3396	0	0	0	0	506	506
3397	0	0	0	0	506	508
3398	0	0	0	0	508	507
3399	0	0	0	0	507	506
3400	0	0	0	0	508	509
3401	0	0	0	0	505	506
3402	0	0	0	0	507	506
3403	0	0	0	0	507	507
3404	0	0	0	0	507	507
3405	0	0	0	0	507	508
3406	0	0	0	0	507	506
3407	0	0	0	0	506	507
3408	0	0	0	0	505	507
3409	0	0	0	0	506	507
3410	0	0	0	0	508	507
3411	0	0	0	0	507	507
3412	0	0	0	0	505	507
3413	0	0	0	0	507	507
3414	0	0	0	0	508	508
3415	0	0	0	0	507	507
3416	0	0	0	0	509	506
3417	0	0	0	0	508	507
3418	0	0	0	0	507	507
3419	0	0	0	0	504	505
3420	0	0	0	0	505	507
3421	0	0	0	0	506	507
3422	0	0	0	0	507	506
3423	0	0	0	0	504	505
3424	0	0	0	0	506	507
3425	0	0	0	0	508	504
3426	0	0	0	0	506	504
3427	0	0	0	0	508	504
3428	0	0	0	0	506	507
3429	0	0	0	0	508	507
3430	0	0	0	0	506	505
3431	0	0	0	0	506	504
3432	0	0	0	0	507	505
3433	0	0	0	0	507	505
3434	0	0	0	0	507	505
3435	0	0	0	0	506	505
3436	0	0	0	0	506	507
3437	0	0	0	0	507	508
3438	0	0	0	0	508	507
3439	0	0	0	0	507	505
3440	0	0	0	0	508	507
3441	0	0	0	0	506	506
3442	0	0	0	0	507	507
3443	0	0	0	0	511	507
3444	0	0	0	0	508	507
3445	0	0	0	0	508	507
3446	0	0	0	0	507	508
3447	0	0	0	0	506	508
3448	0	0	0	0	506	511
3449	0	0	0	0	508	510
3450	0	0	0	0	508	510
3451	0	0	0	0	506	511
3452	0	0	0	0	505	511
3453	0	0	0	0	507	511
3454	0	0	0	0	507	510
3455	0	0	0	0	508	511
3456	0	0	0	0	506	511
3457	0	0	0	0	509	510
3458	0	0	0	0	508	511
3459	0	0	0	0	506	510
3460	0	0	0	0	505	508
3461	0	0	0	0	509	508
3462	0	0	0	0	506	512
3463	0	0	0	0	505	511
3464	0	0	0	0	505	509
3465	0	0	0	0	508	508
3466	0	0	0	0	507	507
3467	0	0	0	0	508	505
3468	0	0	0	0	505	504
3469	0	0	0	0	507	504
3470	0	0	0	0	508	503
3471	0	0	0	0	505	505
3472	0	0	0	0	507	504
3473	0	0	0	0	507	504
3474	0	0	0	0	505	505
3475	0	0	0	0	508	506
3476	0	0	0	0	506	504
3477	0	0	0	0	507	504
3478	0	0	0	0	508	503
3479	0	0	0	0	509	505
3480	0	0	0	0	510	505
3481	0	0	0	0	507	504
3482	0	0	0	0	505	505
3483	0	0	0	0	506	507
3484	0	0	0	0	506	506
3485	0	0	0	0	507	508
3486	0	0	0	0	509	508
3487	0	0	0	0	506	507
3488	0	0	0	0	507	505
3489	0	0	0	0	506	505
3490	0	0	0	0	507	506
3491	0	0	0	0	509	505
3492	0	0	0	0	508	507
3493	0	0	0	0	507	506
3494	0	0	0	0	505	509
3495	0	0	0	0	505	505
3496	0	0	0	0	508	508
3497	0	0	0	0	507	509
3498	0	0	0	0	508	507
3499	0	0	0	0	508	508
3500	0	0	0	0	505	507
3501	0	0	0	0	506	508
3502	0	0	0	0	507	505
3503	0	0	0	0	507	508
3504	0	0	0	0	508	505
3505	0	0	0	0	507	506
3506	0	0	0	0	507	508
3507	0	0	0	0	507	508
3508	0	0	0	0	507	508
3509	0	0	0	0	505	509
3510	0	0	0	0	508	507
3511	0	0	0	0	505	508
3512	0	0	0	0	507	508
3513	0	0	0	0	506	508
3514	0	0	0	0	508	508
3515	0	0	0	0	507	509
3516	0	0	0	0	507	506
3517	0	0	0	0	505	509
3518	0	0	0	0	507	508
3519	0	0	0	0	508	505
3520	0	0	0	0	508	505
3521	0	0	0	0	507	505
3522	0	0	0	0	507	508
3523	0	0	0	0	507	506
3524	0	0	0	0	506	505
3525	0	0	0	0	506	507
3526	0	0	0	0	507	507
3527	0	0	0	0	506	508
3528	0	0	0	0	509	507
3529	0	0	0	0	507	508
3530	0	0	0	0	506	508
3531	0	0	0	0	507	505
3532	0	0	0	0	507	505
3533	0	0	0	0	506	508
3534	0	0	0	0	508	505
3535	0	0	0	0	507	507
3536	0	0	0	0	508	506
3537	0	0	0	0	506	505
3538	0	0	0	0	505	508
3539	0	0	0	0	504	506
3540	0	0	0	0	506	507
3541	0	0	0	0	506	507
3542	0	0	0	0	504	505
3543	0	0	0	0	508	508
3544	0	0	0	0	508	509
3545	0	0	0	0	508	507
3546	0	0	0	0	507	507
3547	0	0	0	0	508	507
3548	0	0	0	0	508	508
3549	0	0	0	0	508	507
3550	0	0	0	0	508	505
3551	0	0	0	0	508	507
3552	0	0	0	0	507	509
3553	0	0	0	0	508	507
3554	0	0	0	0	505	506
3555	0	0	0	0	506	508
3556	0	0	0	0	506	507
3557	0	0	0	0	506	505
3558	0	0	0	0	508	508
3559	0	0	0	0	506	508
3560	0	0	0	0	507	507
3561	0	0	0	0	507	507
3562	0	0	0	0	508	507
3563	0	0	0	0	505	505
3564	0	0	0	0	507	506
3565	0	0	0	0	508	508
3566	0	0	0	0	507	507
3567	0	0	0	0	506	507
3568	0	0	0	0	507	506
3569	0	0	0	0	507	508
3570	0	0	0	0	507	508
3571	0	0	0	0	507	508
3572	0	0	0	0	508	507
3573	0	0	0	0	508	506
3574	0	0	0	0	506	507
3575	0	0	0	0	506	508
3576	0	0	0	0	509	508
3577	0	0	0	0	507	506
3578	0	0	0	0	506	507
3579	0	0	0	0	508	506
3580	0	0	0	0	506	508
3581	0	0	0	0	505	508
3582	0	0	0	0	507	507
3583	0	0	0	0	506	507
3584	0	0	0	0	506	507
3585	0	0	0	0	508	508
3586	0	0	0	0	508	505
3587	0	0	0	0	508	506
3588	0	0	0	0	508	507
3589	0	0	0	0	507	506
3590	0	0	0	0	507	509
3591	0	0	0	0	505	506
3592	0	0	0	0	505	508
3593	0	0	0	0	506	505
3594	0	0	0	0	508	507
3595	0	0	0	0	507	509
3596	0	0	0	0	506	508
3597	0	0	0	0	508	506
3598	0	0	0	0	508	506
3599	0	0	0	0	509	506
3600	0	0	0	0	508	508
3601	0	0	0	0	507	508
3602	0	0	0	0	509	507
3603	0	0	0	0	506	507
3604	0	0	0	0	506	506
3605	0	0	0	0	507	505
3606	0	0	0	0	508	505
3607	0	0	0	0	507	508
3608	0	0	0	0	505	507
3609	0	0	0	0	505	509
3610	0	0	0	0	507	507
3611	0	0	0	0	507	507
3612	0	0	0	0	507	507
3613	0	0	0	0	507	505
3614	0	0	0	0	505	506
3615	0	0	0	0	508	506
3616	0	0	0	0	507	507
3617	0	0	0	0	508	507
3618	0	0	0	0	506	507
3619	0	0	0	0	507	507
3620	0	0	0	0	507	505
3621	0	0	0	0	508	503
3622	0	0	0	0	507	504
3623	0	0	0	0	506	506
3624	0	0	0	0	506	505
3625	0	0	0	0	507	506
3626	0	0	0	0	507	506
3627	0	0	0	0	507	505
3628	0	0	0	0	507	507
3629	0	0	0	0	507	508
3630	0	0	0	0	506	505
3631	0	0	0	0	508	506
3632	0	0	0	0	509	505
3633	0	0	0	0	507	509
3634	0	0	0	0	507	509
3635	0	0	0	0	505	507
3636	0	0	0	0	505	507
3637	0	0	0	0	507	508
3638	0	0	0	0	508	508
3639	0	0	0	0	506	508
3640	0	0	0	0	505	506
3641	0	0	0	0	506	507
3642	0	0	0	0	508	509
3643	0	0	0	0	507	508
3644	0	0	0	0	506	508
3645	0	0	0	0	509	506
3646	0	0	0	0	506	508
3647	0	0	0	0	506	509
3648	0	0	0	0	508	507
3649	0	0	0	0	508	508
3650	0	0	0	0	508	506
3651	0	0	0	0	508	505
3652	0	0	0	0	507	505
3653	0	0	0	0	508	505
3654	0	0	0	0	508	509
3655	0	0	0	0	506	508
3656	0	0	0	0	505	508
3657	0	0	0	0	508	508
3658	0	0	0	0	508	508
3659	0	0	0	0	505	505
3660	0	0	0	0	507	506
3661	0	0	0	0	507	508
3662	0	0	0	0	505	507
3663	0	0	0	0	507	509
3664	0	0	0	0	507	508
3665	0	0	0	0	506	505
3666	0	0	0	0	507	504
3667	0	0	0	0	506	505
3668	0	0	0	0	508	507
3669	0	0	0	0	507	509
3670	0	0	0	0	506	507
3671	0	0	0	0	507	507
3672	0	0	0	0	507	508
3673	0	0	0	0	509	507
3674	0	0	0	0	506	507
3675	0	0	0	0	507	507
3676	0	0	0	0	507	508
3677	0	0	0	0	508	508
3678	0	0	0	0	508	506
3679	0	0	0	0	505	507
3680	0	0	0	0	506	505
3681	0	0	0	0	507	507
3682	0	0	0	0	505	508
3683	0	0	0	0	507	508
3684	0	0	0	0	508	507
3685	0	0	0	0	507	505
3686	0	0	0	0	507	505
3687	0	0	0	0	507	506
3688	0	0	0	0	507	507
3689	0	0	0	0	509	506
3690	0	0	0	0	507	508
3691	0	0	0	0	507	509
3692	0	0	0	0	507	507
3693	0	0	0	0	507	508
3694	0	0	0	0	506	508
3695	0	0	0	0	506	507
3696	0	0	0	0	507	506
3697	0	0	0	0	508	507
3698	0	0	0	0	505	505
3699	0	0	0	0	506	508
3700	0	0	0	0	507	507
3701	0	0	0	0	508	507
3702	0	0	0	0	507	508
3703	0	0	0	0	505	506
3704	0	0	0	0	507	507
3705	0	0	0	0	508	509
3706	0	0	0	0	508	506
3707	0	0	0	0	505	507
3708	0	0	0	0	508	507
3709	0	0	0	0	507	507
3710	0	0	0	0	507	506
3711	0	0	0	0	507	506
3712	0	0	0	0	506	505
3713	0	0	0	0	508	507
3714	0	0	0	0	509	506
3715	0	0	0	0	507	507
3716	0	0	0	0	504	507
3717	0	0	0	0	508	508
3718	0	0	0	0	506	506
3719	0	0	0	0	505	507
3720	0	0	0	0	508	507
3721	0	0	0	0	509	507
3722	0	0	0	0	506	505
3723	0	0	0	0	507	508
3724	0	0	0	0	508	509
3725	0	0	0	0	506	509
3726	0	0	0	0	508	508
3727	0	0	0	0	507	506
3728	0	0	0	0	506	507
3729	0	0	0	0	505	508
3730	0	0	0	0	505	508
3731	0	0	0	0	507	507
3732	0	0	0	0	506	507
3733	0	0	0	0	508	506
3734	0	0	0	0	508	507
3735	0	0	0	0	506	507
3736	0	0	0	0	504	507
3737	0	0	0	0	507	507
3738	0	0	0	0	508	504
3739	0	0	0	0	507	505
3740	0	0	0	0	508	506
3741	0	0	0	0	505	508
3742	0	0	0	0	508	507
3743	0	0	0	0	508	505
3744	0	0	0	0	508	507
3745	0	0	0	0	507	506
3746	0	0	0	0	508	507
3747	0	0	0	0	508	507
3748	0	0	0	0	508	507
3749	0	0	0	0	505	509
3750	0	0	0	0	505	506
3751	0	0	0	0	507	507
3752	0	0	0	0	508	507
3753	0	0	0	0	507	506
3754	0	0	0	0	506	508
3755	0	0	0	0	506	507
3756	0	0	0	0	508	509
3757	0	0	0	0	508	507
3758	0	0	0	0	507	508
3759	0	0	0	0	508	506
3760	0	0	0	0	506	508
3761	0	0	0	0	507	507
3762	0	0	0	0	507	507
3763	0	0	0	0	507	507
3764	0	0	0	0	506	508
3765	0	0	0	0	507	509
3766	0	0	0	0	507	505
3767	0	0	0	0	506	508
3768	0	0	0	0	507	505
3769	0	0	0	0	506	506
3770	0	0	0	0	507	507
3771	0	0	0	0	508	508
3772	0	0	0	0	507	505
3773	0	0	0	0	508	508
3774	0	0	0	0	507	507
3775	0	0	0	0	505	509
3776	0	0	0	0	508	506
3777	0	0	0	0	508	505
3778	0	0	0	0	506	506
3779	0	0	0	0	505	507
3780	0	0	0	0	506	505
3781	0	0	0	0	508	506
3782	0	0	0	0	507	505
3783	0	0	0	0	506	509
3784	0	0	0	0	504	509
3785	0	0	0	0	508	507
3786	0	0	0	0	506	507
3787	0	0	0	0	507	508
3788	0	0	0	0	508	504
3789	0	0	0	0	508	506
3790	0	0	0	0	504	508
3791	0	0	0	0	507	508
3792	0	0	0	0	508	506
3793	0	0	0	0	508	507
3794	0	0	0	0	506	508
3795	0	0	0	0	508	508
3796	0	0	0	0	508	505
3797	0	0	0	0	506	508
3798	0	0	0	0	508	508
3799	0	0	0	0	506	507
3800	0	0	0	0	508	507
3801	0	0	0	0	507	507
3802	0	0	0	0	508	505
3803	0	0	0	0	508	506
3804	0	0	0	0	506	507
3805	0	0	0	0	508	508
3806	0	0	0	0	508	505
3807	0	0	0	0	506	507
3808	0	0	0	0	507	507
3809	0	0	0	0	507	508
3810	0	0	0	0	505	508
3811	0	0	0	0	506	506
3812	0	0	0	0	507	508
3813	0	0	0	0	508	508
3814	0	0	0	0	507	507
3815	0	0	0	0	508	505
3816	0	0	0	0	508	508
3817	0	0	0	0	505	506
3818	0	0	0	0	506	505
3819	0	0	0	0	507	507
3820	0	0	0	0	505	508
3821	0	0	0	0	507	507
3822	0	0	0	0	507	508
3823	0	0	0	0	508	508
3824	0	0	0	0	508	508
3825	0	0	0	0	509	506
3826	0	0	0	0	505	506
3827	0	0	0	0	507	509
3828	0	0	0	0	508	506
3829	0	0	0	0	505	508
3830	0	0	0	0	505	505
3831	0	0	0	0	505	507
3832	0	0	0	0	507	506
3833	0	0	0	0	507	507
3834	0	0	0	0	507	508
3835	0	0	0	0	508	507
3836	0	0	0	0	507	507
3837	0	0	0	0	508	507
3838	0	0	0	0	508	507
3839	0	0	0	0	508	508
3840	0	0	0	0	506	508
3841	0	0	0	0	508	506
3842	0	0	0	0	507	506
3843	0	0	0	0	504	507
3844	0	0	0	0	506	506
3845	0	0	0	0	507	504
3846	0	0	0	0	508	508
3847	0	0	0	0	508	508
3848	0	0	0	0	507	508
3849	0	0	0	0	505	509
3850	0	0	0	0	508	508
3851	0	0	0	0	506	506
3852	0	0	0	0	506	506
3853	0	0	0	0	509	505
3854	0	0	0	0	505	506
3855	0	0	0	0	507	508
3856	0	0	0	0	507	507
3857	0	0	0	0	506	507
3858	0	0	0	0	506	507
3859	0	0	0	0	507	507
3860	0	0	0	0	508	507
3861	0	0	0	0	505	506
3862	0	0	0	0	507	507
3863	0	0	0	0	508	506
3864	0	0	0	0	507	505
3865	0	0	0	0	507	507
3866	0	0	0	0	508	508
3867	0	0	0	0	508	506
3868	0	0	0	0	508	506
3869	0	0	0	0	508	509
3870	0	0	0	0	507	508
3871	0	0	0	0	508	507
3872	0	0	0	0	508	508
3873	0	0	0	0	508	507
3874	0	0	0	0	504	507
3875	0	0	0	0	507	505
3876	0	0	0	0	505	507
3877	0	0	0	0	506	509
3878	0	0	0	0	506	509
3879	0	0	0	0	506	505
3880	0	0	0	0	506	507
3881	0	0	0	0	507	507
3882	0	0	0	0	506	506
3883	0	0	0	0	508	508
3884	0	0	0	0	507	507
3885	0	0	0	0	507	505
3886	0	0	0	0	507	509
3887	0	0	0	0	506	507
3888	0	0	0	0	506	507
3889	0	0	0	0	508	507
3890	0	0	0	0	509	507
3891	0	0	0	0	506	506
3892	0	0	0	0	508	507
3893	0	0	0	0	506	508
3894	0	0	0	0	507	506
3895	0	0	0	0	507	508
3896	0	0	0	0	507	507
3897	0	0	0	0	506	508
3898	0	0	0	0	505	508
3899	0	0	0	0	508	507
3900	0	0	0	0	507	508
3901	0	0	0	0	506	507
3902	0	0	0	0	506	507
3903	0	0	0	0	507	509
3904	0	0	0	0	508	506
3905	0	0	0	0	505	508
3906	0	0	0	0	504	505
3907	0	0	0	0	507	505
3908	0	0	0	0	508	507
3909	0	0	0	0	507	506
3910	0	0	0	0	508	508
3911	0	0	0	0	505	507
3912	0	0	0	0	508	508
3913	0	0	0	0	510	505
3914	0	0	0	0	507	506
3915	0	0	0	0	507	506
3916	0	0	0	0	506	507
3917	0	0	0	0	508	508
3918	0	0	0	0	507	507
3919	0	0	0	0	506	507
3920	0	0	0	0	507	507
3921	0	0	0	0	505	508
3922	0	0	0	0	507	507
3923	0	0	0	0	508	507
3924	0	0	0	0	506	507
3925	0	0	0	0	506	507
3926	0	0	0	0	508	509
3927	0	0	0	0	506	504
3928	0	0	0	0	508	507
3929	0	0	0	0	508	507
3930	0	0	0	0	507	506
3931	0	0	0	0	507	506
3932	0	0	0	0	508	506
3933	0	0	0	0	506	506
3934	0	0	0	0	505	507
3935	0	0	0	0	508	508
3936	0	0	0	0	506	507
3937	0	0	0	0	505	507
3938	0	0	0	0	508	507
3939	0	0	0	0	507	507
3940	0	0	0	0	506	508
3941	0	0	0	0	508	507
3942	0	0	0	0	508	507
3943	0	0	0	0	507	510
3944	0	0	0	0	506	507
3945	0	0	0	0	506	506
3946	0	0	0	0	505	508
3947	0	0	0	0	505	509
3948	0	0	0	0	506	506
3949	0	0	0	0	505	506
3950	0	0	0	0	508	505
3951	0	0	0	0	506	506
3952	0	0	0	0	507	507
3953	0	0	0	0	507	508
3954	0	0	0	0	507	507
3955	0	0	0	0	505	508
3956	0	0	0	0	507	508
3957	0	0	0	0	504	507
3958	0	0	0	0	507	506
3959	0	0	0	0	506	507
3960	0	0	0	0	506	507
3961	0	0	0	0	508	507
3962	0	0	0	0	508	505
3963	0	0	0	0	507	508
3964	0	0	0	0	507	507
3965	0	0	0	0	507	508
3966	0	0	0	0	507	507
3967	0	0	0	0	508	507
3968	0	0	0	0	507	507
3969	0	0	0	0	507	506
3970	0	0	0	0	506	507
3971	0	0	0	0	507	507
3972	0	0	0	0	509	508
3973	0	0	0	0	508	507
3974	0	0	0	0	505	506
3975	0	0	0	0	505	505
3976	0	0	0	0	506	507
3977	0	0	0	0	505	507
3978	0	0	0	0	508	507
3979	0	0	0	0	507	507
3980	0	0	0	0	506	506
3981	0	0	0	0	508	507
3982	0	0	0	0	509	508
3983	0	0	0	0	507	506
3984	0	0	0	0	506	507
3985	0	0	0	0	508	507
3986	0	0	0	0	508	508
3987	0	0	0	0	507	508
3988	0	0	0	0	505	510
3989	0	0	0	0	507	506
3990	0	0	0	0	508	508
3991	0	0	0	0	509	507
3992	0	0	0	0	507	507
3993	0	0	0	0	508	506
3994	0	0	0	0	507	506
3995	0	0	0	0	506	506
3996	0	0	0	0	506	506
3997	0	0	0	0	506	508
3998	0	0	0	0	505	507
3999	0	0	0	0	505	507
4000	0	0	0	0	507	507
4001	0	0	0	0	506	508
4002	0	0	0	0	507	508
4003	0	0	0	0	507	505
4004	0	0	0	0	508	506
4005	0	0	0	0	507	507
4006	0	0	0	0	505	508
4007	0	0	0	0	507	506
4008	0	0	0	0	506	507
4009	0	0	0	0	507	509
4010	0	0	0	0	507	507
4011	0	0	0	0	508	506
4012	0	0	0	0	508	508
4013	0	0	0	0	507	509
4014	0	0	0	0	507	507
4015	0	0	0	0	507	508
4016	0	0	0	0	507	504
4017	0	0	0	0	507	505
4018	0	0	0	0	508	508
4019	0	0	0	0	508	507
4020	0	0	0	0	508	506
4021	0	0	0	0	507	507
4022	0	0	0	0	505	508
4023	0	0	0	0	506	508
4024	0	0	0	0	505	507
4025	0	0	0	0	508	508
4026	0	0	0	0	507	505
4027	0	0	0	0	506	507
4028	0	0	0	0	507	507
4029	0	0	0	0	506	504
4030	0	0	0	0	504	508
4031	0	0	0	0	507	508
4032	0	0	0	0	507	507
4033	0	0	0	0	506	508
4034	0	0	0	0	507	507
4035	0	0	0	0	507	505
4036	0	0	0	0	509	507
4037	0	0	0	0	507	508
4038	0	0	0	0	506	508
4039	0	0	0	0	506	506
4040	0	0	0	0	508	508
4041	0	0	0	0	509	506
4042	0	0	0	0	508	507
4043	0	0	0	0	507	505
4044	0	0	0	0	507	507
4045	0	0	0	0	507	505
4046	0	0	0	0	507	507
4047	0	0	0	0	507	508
4048	0	0	0	0	508	508
4049	0	0	0	0	509	508
4050	0	0	0	0	507	508
4051	0	0	0	0	505	505
4052	0	0	0	0	504	504
4053	0	0	0	0	508	507
4054	0	0	0	0	508	508
4055	0	0	0	0	506	506
4056	0	0	0	0	506	507
4057	0	0	0	0	507	507
4058	0	0	0	0	505	507
4059	0	0	0	0	506	507
4060	0	0	0	0	507	506
4061	0	0	0	0	505	504
4062	0	0	0	0	508	508
4063	0	0	0	0	506	508
4064	0	0	0	0	508	507
4065	0	0	0	0	507	508
4066	0	0	0	0	508	508
4067	0	0	0	0	508	506
4068	0	0	0	0	508	508
4069	0	0	0	0	509	507
4070	0	0	0	0	507	507
4071	0	0	0	0	508	510
4072	0	0	0	0	508	506
4073	0	0	0	0	510	507
4074	0	0	0	0	506	506
4075	0	0	0	0	507	506
4076	0	0	0	0	506	506
4077	0	0	0	0	506	507
4078	0	0	0	0	508	508
4079	0	0	0	0	507	505
4080	0	0	0	0	507	506
4081	0	0	0	0	506	509
4082	0	0	0	0	506	508
4083	0	0	0	0	507	508
4084	0	0	0	0	508	507
4085	0	0	0	0	507	507
4086	0	0	0	0	505	508
4087	0	0	0	0	508	507
4088	0	0	0	0	505	508
4089	0	0	0	0	505	507
4090	0	0	0	0	506	506
4091	0	0	0	0	508	507
4092	0	0	0	0	507	506
4093	0	0	0	0	507	509
4094	0	0	0	0	508	506
4095	0	0	0	0	508	506
4096	0	0	0	0	508	508
4097	0	0	0	0	508	509
4098	0	0	0	0	507	508
4099	0	0	0	0	505	506
4100	0	0	0	0	506	506
4101	0	0	0	0	507	506
4102	0	0	0	0	506	506
4103	0	0	0	0	506	505
4104	0	0	0	0	505	508
4105	0	0	0	0	506	509
4106	0	0	0	0	507	506
4107	0	0	0	0	508	506
4108	0	0	0	0	506	508
4109	0	0	0	0	506	508
4110	0	0	0	0	508	507
4111	0	0	0	0	508	508
4112	0	0	0	0	507	505
4113	0	0	0	0	508	509
4114	0	0	0	0	507	507
4115	0	0	0	0	507	507
4116	0	0	0	0	506	505
4117	0	0	0	0	505	505
4118	0	0	0	0	506	508
4119	0	0	0	0	506	507
4120	0	0	0	0	505	507
4121	0	0	0	0	507	505
4122	0	0	0	0	507	507
4123	0	0	0	0	508	506
4124	0	0	0	0	507	504
4125	0	0	0	0	508	507
4126	0	0	0	0	505	507
4127	0	0	0	0	506	508
4128	0	0	0	0	507	507
4129	0	0	0	0	505	509
4130	0	0	0	0	508	510
4131	0	0	0	0	507	508
4132	0	0	0	0	507	508
4133	0	0	0	0	508	506
4134	0	0	0	0	508	508
4135	0	0	0	0	505	508
4136	0	0	0	0	510	507
4137	0	0	0	0	507	506
4138	0	0	0	0	507	507
4139	0	0	0	0	508	506
4140	0	0	0	0	505	507
4141	0	0	0	0	506	505
4142	0	0	0	0	504	507
4143	0	0	0	0	506	506
4144	0	0	0	0	508	508
4145	0	0	0	0	506	506
4146	0	0	0	0	506	508
4147	0	0	0	0	508	507
4148	0	0	0	0	507	507
4149	0	0	0	0	507	508
4150	0	0	0	0	507	508
4151	0	0	0	0	507	507
4152	0	0	0	0	505	506
4153	0	0	0	0	509	505
4154	0	0	0	0	505	505
4155	0	0	0	0	508	507
4156	0	0	0	0	506	508
4157	0	0	0	0	508	507
4158	0	0	0	0	506	507
4159	0	0	0	0	506	507
4160	0	0	0	0	506	507
4161	0	0	0	0	507	506
4162	0	0	0	0	506	507
4163	0	0	0	0	507	508
4164	0	0	0	0	506	508
4165	0	0	0	0	508	509
4166	0	0	0	0	507	507
4167	0	0	0	0	507	507
4168	0	0	0	0	507	506
4169	0	0	0	0	506	508
4170	0	0	0	0	507	507
4171	0	0	0	0	508	507
4172	0	0	0	0	508	507
4173	0	0	0	0	506	505
4174	0	0	0	0	508	505
4175	0	0	0	0	507	506
4176	0	0	0	0	507	506
4177	0	0	0	0	509	509
4178	0	0	0	0	506	507
4179	0	0	0	0	507	508
4180	0	0	0	0	505	505
4181	0	0	0	0	505	506
4182	0	0	0	0	507	507
4183	0	0	0	0	508	508
4184	0	0	0	0	505	509
4185	0	0	0	0	507	508
4186	0	0	0	0	506	505
4187	0	0	0	0	508	508
4188	0	0	0	0	508	507
4189	0	0	0	0	506	507
4190	0	0	0	0	505	507
4191	0	0	0	0	508	507
4192	0	0	0	0	508	508
4193	0	0	0	0	508	507
4194	0	0	0	0	509	508
4195	0	0	0	0	508	507
4196	0	0	0	0	508	505
4197	0	0	0	0	506	505
4198	0	0	0	0	505	507
4199	0	0	0	0	508	507
4200	0	0	0	0	507	507
4201	0	0	0	0	506	506
4202	0	0	0	0	508	507
4203	0	0	0	0	508	504
4204	0	0	0	0	507	505
4205	0	0	0	0	507	505
4206	0	0	0	0	505	507
4207	0	0	0	0	507	507
4208	0	0	0	0	507	506
4209	0	0	0	0	505	508
4210	0	0	0	0	507	507
4211	0	0	0	0	507	506
4212	0	0	0	0	508	507
4213	0	0	0	0	506	508
4214	0	0	0	0	508	508
4215	0	0	0	0	506	508
4216	0	0	0	0	507	505
4217	0	0	0	0	504	507
4218	0	0	0	0	506	509
4219	0	0	0	0	507	507
4220	0	0	0	0	509	508
4221	0	0	0	0	507	508
4222	0	0	0	0	507	506
4223	0	0	0	0	507	507
4224	0	0	0	0	507	506
4225	0	0	0	0	506	507
4226	0	0	0	0	506	508
4227	0	0	0	0	507	506
4228	0	0	0	0	507	507
4229	0	0	0	0	506	507
4230	0	0	0	0	506	507
4231	0	0	0	0	505	506
4232	0	0	0	0	506	507
4233	0	0	0	0	508	505
4234	0	0	0	0	505	505
4235	0	0	0	0	507	505
4236	0	0	0	0	507	503
4237	0	0	0	0	507	507
4238	0	0	0	0	508	504
4239	0	0	0	0	508	503
4240	0	0	0	0	508	506
4241	0	0	0	0	505	505
4242	0	0	0	0	508	505
4243	0	0	0	0	508	506
4244	0	0	0	0	509	505
4245	0	0	0	0	508	507
4246	0	0	0	0	508	506
4247	0	0	0	0	506	508
4248	0	0	0	0	507	507
4249	0	0	0	0	505	507
4250	0	0	0	0	505	508
4251	0	0	0	0	505	509
4252	0	0	0	0	508	508
4253	0	0	0	0	506	507
4254	0	0	0	0	506	507
4255	0	0	0	0	505	508
4256	0	0	0	0	506	509
4257	0	0	0	0	507	511
4258	0	0	0	0	508	512
4259	0	0	0	0	508	511
4260	0	0	0	0	508	510
4261	0	0	0	0	505	510
4262	0	0	0	0	507	510
4263	0	0	0	0	507	510
4264	0	0	0	0	507	510
4265	0	0	0	0	508	508
4266	0	0	0	0	508	510
4267	0	0	0	0	507	508
4268	0	0	0	0	506	510
4269	0	0	0	0	507	511
4270	0	0	0	0	507	510
4271	0	0	0	0	507	509
4272	0	0	0	0	506	510
4273	0	0	0	0	508	508
4274	0	0	0	0	508	504
4275	0	0	0	0	508	504
4276	0	0	0	0	508	503
4277	0	0	0	0	505	505
4278	0	0	0	0	508	506
4279	0	0	0	0	509	505
4280	0	0	0	0	508	504
4281	0	0	0	0	506	505
4282	0	0	0	0	505	505
4283	0	0	0	0	506	505
4284	0	0	0	0	507	503
4285	0	0	0	0	506	507
4286	0	0	0	0	506	504
4287	0	0	0	0	506	507
4288	0	0	0	0	505	507
4289	0	0	0	0	507	506
4290	0	0	0	0	508	505
4291	0	0	0	0	506	505
4292	0	0	0	0	507	506
4293	0	0	0	0	507	505
4294	0	0	0	0	506	507
4295	0	0	0	0	508	505
4296	0	0	0	0	505	506
4297	0	0	0	0	506	507
4298	0	0	0	0	507	507
4299	0	0	0	0	505	508
4300	0	0	0	0	508	507
4301	0	0	0	0	505	507
4302	0	0	0	0	505	505
4303	0	0	0	0	507	508
4304	0	0	0	0	508	508
4305	0	0	0	0	508	508
4306	0	0	0	0	507	506
4307	0	0	0	0	508	506
4308	0	0	0	0	508	508
4309	0	0	0	0	506	503
4310	0	0	0	0	508	506
4311	0	0	0	0	508	508
4312	0	0	0	0	506	508
4313	0	0	0	0	507	508
4314	0	0	0	0	505	507
4315	0	0	0	0	508	510
4316	0	0	0	0	507	508
4317	0	0	0	0	508	506
4318	0	0	0	0	508	506
4319	0	0	0	0	507	506
4320	0	0	0	0	506	507
4321	0	0	0	0	508	507
4322	0	0	0	0	507	508
4323	0	0	0	0	506	509
4324	0	0	0	0	507	508
4325	0	0	0	0	507	508
4326	0	0	0	0	506	506
4327	0	0	0	0	506	507
4328	0	0	0	0	508	507
4329	0	0	0	0	508	506
4330	0	0	0	0	506	509
4331	0	0	0	0	507	508
4332	0	0	0	0	508	505
4333	0	0	0	0	507	507
4334	0	0	0	0	506	508
4335	0	0	0	0	506	508
4336	0	0	0	0	507	507
4337	0	0	0	0	507	506
4338	0	0	0	0	506	507
4339	0	0	0	0	508	505
4340	0	0	0	0	507	507
4341	0	0	0	0	508	508
4342	0	0	0	0	505	507
4343	0	0	0	0	505	505
4344	0	0	0	0	505	505
4345	0	0	0	0	507	507
4346	0	0	0	0	508	508
4347	0	0	0	0	508	507
4348	0	0	0	0	507	508
4349	0	0	0	0	505	508
4350	0	0	0	0	505	507
4351	0	0	0	0	507	505
4352	0	0	0	0	506	507
4353	0	0	0	0	508	505
4354	0	0	0	0	506	506
4355	0	0	0	0	508	507
4356	0	0	0	0	507	509
4357	0	0	0	0	508	507
4358	0	0	0	0	507	508
4359	0	0	0	0	508	507
4360	0	0	0	0	507	507
4361	0	0	0	0	505	507
4362	0	0	0	0	507	506
4363	0	0	0	0	505	507
4364	0	0	0	0	507	506
4365	0	0	0	0	508	507
4366	0	0	0	0	506	506
4367	0	0	0	0	507	508
4368	0	0	0	0	508	509
4369	0	0	0	0	508	507
4370	0	0	0	0	507	507
4371	0	0	0	0	508	506
4372	0	0	0	0	507	508
4373	0	0	0	0	507	508
4374	0	0	0	0	507	506
4375	0	0	0	0	507	507
4376	0	0	0	0	506	508
4377	0	0	0	0	508	506
4378	0	0	0	0	505	508
4379	0	0	0	0	505	506
4380	0	0	0	0	507	505
4381	0	0	0	0	507	506
4382	0	0	0	0	505	508
4383	0	0	0	0	508	507
4384	0	0	0	0	508	507
4385	0	0	0	0	507	506
4386	0	0	0	0	507	505
4387	0	0	0	0	509	506
4388	0	0	0	0	507	507
4389	0	0	0	0	507	508
4390	0	0	0	0	508	507
4391	0	0	0	0	509	507
4392	0	0	0	0	507	507
4393	0	0	0	0	507	508
4394	0	0	0	0	507	508
4395	0	0	0	0	508	507
4396	0	0	0	0	508	506
4397	0	0	0	0	507	509
4398	0	0	0	0	506	509
4399	0	0	0	0	505	508
4400	0	0	0	0	507	508
4401	0	0	0	0	505	505
4402	0	0	0	0	507	507
4403	0	0	0	0	507	507
4404	0	0	0	0	508	505
4405	0	0	0	0	507	509
4406	0	0	0	0	508	510
4407	0	0	0	0	504	507
4408	0	0	0	0	506	506
4409	0	0	0	0	507	509
4410	0	0	0	0	507	506
4411	0	0	0	0	505	505
4412	0	0	0	0	507	507
4413	0	0	0	0	507	507
4414	0	0	0	0	504	506
4415	0	0	0	0	508	507
4416	0	0	0	0	508	507
4417	0	0	0	0	507	507
4418	0	0	0	0	508	506
4419	0	0	0	0	507	506
4420	0	0	0	0	506	506
4421	0	0	0	0	507	505
4422	0	0	0	0	508	507
4423	0	0	0	0	508	507
4424	0	0	0	0	508	507
4425	0	0	0	0	506	506
4426	0	0	0	0	506	507
4427	0	0	0	0	507	510
4428	0	0	0	0	508	508
4429	0	0	0	0	508	505
4430	0	0	0	0	508	508
4431	0	0	0	0	507	507
4432	0	0	0	0	506	507
4433	0	0	0	0	507	508
4434	0	0	0	0	505	505
4435	0	0	0	0	507	505
4436	0	0	0	0	506	507
4437	0	0	0	0	507	506
4438	0	0	0	0	508	507
4439	0	0	0	0	506	507
4440	0	0	0	0	509	506
4441	0	0	0	0	507	508
4442	0	0	0	0	507	508
4443	0	0	0	0	506	507
4444	0	0	0	0	505	506
4445	0	0	0	0	506	504
4446	0	0	0	0	506	507
4447	0	0	0	0	507	507
4448	0	0	0	0	508	508
4449	0	0	0	0	508	508
4450	0	0	0	0	507	506
4451	0	0	0	0	507	505
4452	0	0	0	0	507	507
4453	0	0	0	0	510	508
4454	0	0	0	0	507	508
4455	0	0	0	0	507	505
4456	0	0	0	0	506	505
4457	0	0	0	0	507	506
4458	0	0	0	0	507	507
4459	0	0	0	0	505	508
4460	0	0	0	0	506	507
4461	0	0	0	0	505	506
4462	0	0	0	0	504	505
4463	0	0	0	0	506	508
4464	0	0	0	0	506	507
4465	0	0	0	0	507	507
4466	0	0	0	0	508	507
4467	0	0	0	0	508	507
4468	0	0	0	0	507	509
4469	0	0	0	0	505	507
4470	0	0	0	0	507	506
4471	0	0	0	0	506	508
4472	0	0	0	0	507	506
4473	0	0	0	0	508	505
4474	0	0	0	0	507	507
4475	0	0	0	0	507	509
4476	0	0	0	0	506	507
4477	0	0	0	0	509	507
4478	0	0	0	0	507	510
4479	0	0	0	0	506	507
4480	0	0	0	0	507	507
4481	0	0	0	0	508	507
4482	0	0	0	0	508	508
4483	0	0	0	0	505	509
4484	0	0	0	0	507	506
4485	0	0	0	0	506	507
4486	0	0	0	0	506	507
4487	0	0	0	0	507	505
4488	0	0	0	0	509	506
4489	0	0	0	0	508	504
4490	0	0	0	0	509	507
4491	0	0	0	0	508	507
4492	0	0	0	0	504	507
4493	0	0	0	0	506	508
4494	0	0	0	0	508	506
4495	0	0	0	0	508	507
4496	0	0	0	0	507	505
4497	0	0	0	0	508	507
4498	0	0	0	0	507	507
4499	0	0	0	0	506	505
4500	0	0	0	0	508	508
4501	0	0	0	0	506	506
4502	0	0	0	0	505	506
4503	0	0	0	0	508	508
4504	0	0	0	0	507	508
4505	0	0	0	0	505	507
4506	0	0	0	0	507	506
4507	0	0	0	0	507	506
4508	0	0	0	0	508	507
4509	0	0	0	0	508	505
4510	0	0	0	0	506	505
4511	0	0	0	0	507	506
4512	0	0	0	0	506	507
4513	0	0	0	0	507	508
4514	0	0	0	0	506	508
4515	0	0	0	0	507	508
4516	0	0	0	0	507	509
4517	0	0	0	0	508	506
4518	0	0	0	0	507	504
4519	0	0	0	0	508	506
4520	0	0	0	0	505	507
4521	0	0	0	0	504	508
4522	0	0	0	0	507	509
4523	0	0	0	0	505	507
4524	0	0	0	0	505	507
4525	0	0	0	0	507	507
4526	0	0	0	0	508	506
4527	0	0	0	0	507	506
4528	0	0	0	0	506	508
4529	0	0	0	0	507	508
4530	0	0	0	0	506	508
4531	0	0	0	0	507	506
4532	0	0	0	0	507	505
4533	0	0	0	0	509	507
4534	0	0	0	0	507	505
4535	0	0	0	0	506	507
4536	0	0	0	0	507	507
4537	0	0	0	0	507	506
4538	0	0	0	0	507	508
4539	0	0	0	0	508	505
4540	0	0	0	0	508	506
4541	0	0	0	0	506	508
4542	0	0	0	0	506	505
4543	0	0	0	0	507	505
4544	0	0	0	0	506	506
4545	0	0	0	0	506	507
4546	0	0	0	0	506	509
4547	0	0	0	0	506	507
4548	0	0	0	0	508	507
4549	0	0	0	0	508	508
4550	0	0	0	0	505	507
4551	0	0	0	0	508	506
4552	0	0	0	0	508	506
4553	0	0	0	0	508	506
4554	0	0	0	0	505	508
4555	0	0	0	0	506	507
4556	0	0	0	0	507	508
4557	0	0	0	0	506	507
4558	0	0	0	0	508	508
4559	0	0	0	0	507	506
4560	0	0	0	0	508	505
4561	0	0	0	0	507	507
4562	0	0	0	0	508	507
4563	0	0	0	0	506	507
4564	0	0	0	0	507	508
4565	0	0	0	0	507	506
4566	0	0	0	0	506	508
4567	0	0	0	0	509	505
4568	0	0	0	0	508	505
4569	0	0	0	0	505	506
4570	0	0	0	0	508	506
4571	0	0	0	0	505	505
4572	0	0	0	0	507	506
4573	0	0	0	0	505	505
4574	0	0	0	0	505	506
4575	0	0	0	0	508	508
4576	0	0	0	0	508	508
4577	0	0	0	0	506	505
4578	0	0	0	0	505	505
4579	0	0	0	0	508	507
4580	0	0	0	0	506	507
4581	0	0	0	0	506	506
4582	0	0	0	0	508	507
4583	0	0	0	0	506	507
4584	0	0	0	0	508	508
4585	0	0	0	0	505	507
4586	0	0	0	0	509	506
4587	0	0	0	0	508	505
4588	0	0	0	0	508	505
4589	0	0	0	0	508	507
4590	0	0	0	0	507	509
4591	0	0	0	0	507	508
4592	0	0	0	0	507	508
4593	0	0	0	0	506	505
4594	0	0	0	0	504	506
4595	0	0	0	0	505	508
4596	0	0	0	0	505	509
4597	0	0	0	0	508	507
4598	0	0	0	0	507	508
4599	0	0	0	0	506	507
4600	0	0	0	0	507	506
4601	0	0	0	0	507	506
4602	0	0	0	0	505	508
4603	0	0	0	0	506	507
4604	0	0	0	0	507	506
4605	0	0	0	0	508	506
4606	0	0	0	0	507	507
4607	0	0	0	0	506	508
4608	0	0	0	0	508	506
4609	0	0	0	0	505	507
4610	0	0	0	0	508	506
4611	0	0	0	0	508	508
4612	0	0	0	0	507	507
4613	0	0	0	0	507	508
4614	0	0	0	0	506	506
4615	0	0	0	0	507	506
4616	0	0	0	0	505	508
4617	0	0	0	0	507	505
4618	0	0	0	0	508	508
4619	0	0	0	0	506	508
4620	0	0	0	0	506	506
4621	0	0	0	0	508	507
4622	0	0	0	0	506	508
4623	0	0	0	0	507	507
4624	0	0	0	0	505	506
4625	0	0	0	0	508	506
4626	0	0	0	0	507	508
4627	0	0	0	0	506	506
4628	0	0	0	0	508	508
4629	0	0	0	0	508	508
4630	0	0	0	0	507	508
4631	0	0	0	0	507	507
4632	0	0	0	0	505	505
4633	0	0	0	0	508	507
4634	0	0	0	0	507	508
4635	0	0	0	0	508	507
4636	0	0	0	0	507	509
4637	0	0	0	0	506	507
4638	0	0	0	0	505	505
4639	0	0	0	0	507	507
4640	0	0	0	0	505	505
4641	0	0	0	0	506	508
4642	0	0	0	0	505	506
4643	0	0	0	0	508	505
4644	0	0	0	0	506	507
4645	0	0	0	0	505	507
4646	0	0	0	0	507	507
4647	0	0	0	0	506	508
4648	0	0	0	0	506	505
4649	0	0	0	0	508	507
4650	0	0	0	0	508	504
4651	0	0	0	0	507	506
4652	0	0	0	0	509	509
4653	0	0	0	0	508	507
4654	0	0	0	0	506	507
4655	0	0	0	0	507	509
4656	0	0	0	0	505	506
4657	0	0	0	0	507	507
4658	0	0	0	0	506	507
4659	0	0	0	0	509	505
4660	0	0	0	0	506	506
4661	0	0	0	0	507	508
4662	0	0	0	0	509	505
4663	0	0	0	0	506	509
4664	0	0	0	0	507	505
4665	0	0	0	0	507	506
4666	0	0	0	0	506	508
4667	0	0	0	0	508	508
4668	0	0	0	0	507	507
4669	0	0	0	0	506	505
4670	0	0	0	0	505	505
4671	0	0	0	0	507	506
4672	0	0	0	0	508	506
4673	0	0	0	0	507	508
4674	0	0	0	0	508	506
4675	0	0	0	0	508	506
4676	0	0	0	0	508	508
4677	0	0	0	0	507	509
4678	0	0	0	0	510	508
4679	0	0	0	0	507	506
4680	0	0	0	0	506	505
4681	0	0	0	0	506	507
4682	0	0	0	0	507	508
4683	0	0	0	0	507	508
4684	0	0	0	0	505	508
4685	0	0	0	0	505	506
4686	0	0	0	0	507	507
4687	0	0	0	0	507	508
4688	0	0	0	0	507	506
4689	0	0	0	0	506	505
4690	0	0	0	0	505	504
4691	0	0	0	0	508	507
4692	0	0	0	0	506	506
4693	0	0	0	0	508	507
4694	0	0	0	0	507	508
4695	0	0	0	0	506	508
4696	0	0	0	0	507	505
4697	0	0	0	0	506	507
4698	0	0	0	0	508	507
4699	0	0	0	0	508	508
4700	0	0	0	0	509	509
4701	0	0	0	0	506	507
4702	0	0	0	0	506	507
4703	0	0	0	0	508	507
4704	0	0	0	0	505	505
4705	0	0	0	0	506	508
4706	0	0	0	0	506	508
4707	0	0	0	0	506	508
4708	0	0	0	0	508	507
4709	0	0	0	0	508	509
4710	0	0	0	0	505	508
4711	0	0	0	0	507	507
4712	0	0	0	0	506	505
4713	0	0	0	0	507	506
4714	0	0	0	0	508	507
4715	0	0	0	0	507	507
4716	0	0	0	0	507	505
4717	0	0	0	0	505	504
4718	0	0	0	0	508	505
4719	0	0	0	0	507	507
4720	0	0	0	0	508	507
4721	0	0	0	0	505	507
4722	0	0	0	0	505	507
4723	0	0	0	0	507	508
4724	0	0	0	0	506	507
4725	0	0	0	0	505	508
4726	0	0	0	0	509	507
4727	0	0	0	0	508	508
4728	0	0	0	0	505	508
4729	0	0	0	0	507	508
4730	0	0	0	0	506	508
4731	0	0	0	0	507	508
4732	0	0	0	0	506	506
4733	0	0	0	0	508	508
4734	0	0	0	0	508	507
4735	0	0	0	0	508	507
4736	0	0	0	0	507	507
4737	0	0	0	0	507	507
4738	0	0	0	0	507	507
4739	0	0	0	0	507	507
4740	0	0	0	0	505	505
4741	0	0	0	0	506	507
4742	0	0	0	0	507	505
4743	0	0	0	0	506	507
4744	0	0	0	0	508	507
4745	0	0	0	0	508	506
4746	0	0	0	0	508	504
4747	0	0	0	0	505	506
4748	0	0	0	0	506	508
4749	0	0	0	0	504	506
4750	0	0	0	0	507	508
4751	0	0	0	0	506	504
4752	0	0	0	0	508	508
4753	0	0	0	0	506	507
4754	0	0	0	0	506	505
4755	0	0	0	0	505	508
4756	0	0	0	0	507	508
4757	0	0	0	0	507	507
4758	0	0	0	0	508	507
4759	0	0	0	0	504	508
4760	0	0	0	0	508	508
4761	0	0	0	0	509	506
4762	0	0	0	0	508	507
4763	0	0	0	0	508	505
4764	0	0	0	0	508	505
4765	0	0	0	0	506	508
4766	0	0	0	0	509	507
4767	0	0	0	0	508	508
4768	0	0	0	0	507	509
4769	0	0	0	0	507	507
4770	0	0	0	0	505	506
4771	0	0	0	0	507	507
4772	0	0	0	0	507	507
4773	0	0	0	0	508	508
4774	0	0	0	0	505	508
4775	0	0	0	0	508	508
4776	0	0	0	0	508	507
4777	0	0	0	0	505	507
4778	0	0	0	0	506	506
4779	0	0	0	0	505	508
4780	0	0	0	0	507	507
4781	0	0	0	0	505	504
4782	0	0	0	0	507	507
4783	0	0	0	0	507	506
4784	0	0	0	0	505	507
4785	0	0	0	0	508	508
4786	0	0	0	0	506	508
4787	0	0	0	0	506	507
4788	0	0	0	0	505	508
4789	0	0	0	0	506	508
4790	0	0	0	0	506	506
4791	0	0	0	0	507	507
4792	0	0	0	0	508	507
4793	0	0	0	0	508	507
4794	0	0	0	0	508	507
4795	0	0	0	0	506	507
4796	0	0	0	0	505	508
4797	0	0	0	0	509	507
4798	0	0	0	0	505	508
4799	0	0	0	0	505	507
4800	0	0	0	0	506	505
4801	0	0	0	0	508	505
4802	0	0	0	0	508	507
4803	0	0	0	0	509	507
4804	0	0	0	0	508	508
4805	0	0	0	0	506	505
4806	0	0	0	0	506	506
4807	0	0	0	0	508	509
4808	0	0	0	0	508	507
4809	0	0	0	0	506	506
4810	0	0	0	0	507	507
4811	0	0	0	0	507	508
4812	0	0	0	0	506	508
4813	0	0	0	0	505	507
4814	0	0	0	0	505	505
4815	0	0	0	0	507	507
4816	0	0	0	0	509	504
4817	0	0	0	0	508	504
4818	0	0	0	0	507	507
4819	0	0	0	0	507	507
4820	0	0	0	0	509	506
4821	0	0	0	0	509	508
4822	0	0	0	0	508	507
4823	0	0	0	0	507	507
4824	0	0	0	0	506	508
4825	0	0	0	0	505	507
4826	0	0	0	0	504	507
4827	0	0	0	0	505	505
4828	0	0	0	0	506	506
4829	0	0	0	0	507	508
4830	0	0	0	0	508	507
4831	0	0	0	0	505	507
4832	0	0	0	0	508	510
4833	0	0	0	0	508	508
4834	0	0	0	0	507	505
4835	0	0	0	0	507	506
4836	0	0	0	0	507	508
4837	0	0	0	0	505	509
4838	0	0	0	0	507	508
4839	0	0	0	0	506	505
4840	0	0	0	0	505	507
4841	0	0	0	0	505	506
4842	0	0	0	0	507	507
4843	0	0	0	0	506	508
4844	0	0	0	0	505	508
4845	0	0	0	0	507	505
4846	0	0	0	0	506	506
4847	0	0	0	0	506	507
4848	0	0	0	0	506	506
4849	0	0	0	0	509	508
4850	0	0	0	0	509	508
4851	0	0	0	0	508	508
4852	0	0	0	0	508	505
4853	0	0	0	0	508	508
4854	0	0	0	0	508	507
4855	0	0	0	0	507	506
4856	0	0	0	0	509	507
4857	0	0	0	0	508	507
4858	0	0	0	0	507	507
4859	0	0	0	0	505	508
4860	0	0	0	0	508	508
4861	0	0	0	0	506	506
4862	0	0	0	0	506	508
4863	0	0	0	0	505	507
4864	0	0	0	0	507	507
4865	0	0	0	0	507	507
4866	0	0	0	0	507	506
4867	0	0	0	0	507	505
4868	0	0	0	0	507	506
4869	0	0	0	0	508	507
4870	0	0	0	0	506	505
4871	0	0	0	0	507	508
4872	0	0	0	0	507	507
4873	0	0	0	0	507	508
4874	0	0	0	0	507	506
4875	0	0	0	0	508	506
4876	0	0	0	0	508	507
4877	0	0	0	0	505	507
4878	0	0	0	0	508	508
4879	0	0	0	0	506	508
4880	0	0	0	0	508	508
4881	0	0	0	0	505	505
4882	0	0	0	0	505	507
4883	0	0	0	0	506	506
4884	0	0	0	0	508	507
4885	0	0	0	0	507	509
4886	0	0	0	0	507	509
4887	0	0	0	0	506	507
4888	0	0	0	0	505	506
4889	0	0	0	0	507	506
4890	0	0	0	0	507	504
4891	0	0	0	0	507	507
4892	0	0	0	0	507	507
4893	0	0	0	0	506	508
4894	0	0	0	0	506	508
4895	0	0	0	0	505	505
4896	0	0	0	0	509	506
4897	0	0	0	0	504	506
4898	0	0	0	0	505	506
4899	0	0	0	0	508	507
4900	0	0	0	0	506	507
4901	0	0	0	0	507	508
4902	0	0	0	0	505	507
4903	0	0	0	0	506	506
4904	0	0	0	0	507	506
4905	0	0	0	0	507	509
4906	0	0	0	0	509	507
4907	0	0	0	0	508	509
4908	0	0	0	0	508	505
4909	0	0	0	0	506	506
4910	0	0	0	0	506	505
4911	0	0	0	0	506	507
4912	0	0	0	0	507	507
4913	0	0	0	0	508	507
4914	0	0	0	0	508	508
4915	0	0	0	0	507	507
4916	0	0	0	0	505	507
4917	0	0	0	0	507	507
4918	0	0	0	0	507	509
4919	0	0	0	0	508	506
4920	0	0	0	0	508	507
4921	0	0	0	0	507	505
4922	0	0	0	0	507	506
4923	0	0	0	0	508	506
4924	0	0	0	0	506	506
4925	0	0	0	0	508	508
4926	0	0	0	0	507	507
4927	0	0	0	0	507	508
4928	0	0	0	0	507	507
4929	0	0	0	0	507	508
4930	0	0	0	0	507	507
4931	0	0	0	0	507	508
4932	0	0	0	0	505	508
4933	0	0	0	0	506	506
4934	0	0	0	0	506	508
4935	0	0	0	0	508	505
4936	0	0	0	0	507	507
4937	0	0	0	0	506	509
4938	0	0	0	0	506	505
4939	0	0	0	0	507	505
4940	0	0	0	0	508	507
4941	0	0	0	0	508	507
4942	0	0	0	0	507	506
4943	0	0	0	0	507	506
4944	0	0	0	0	506	508
4945	0	0	0	0	506	506
4946	0	0	0	0	506	507
4947	0	0	0	0	505	508
4948	0	0	0	0	508	505
4949	0	0	0	0	507	507
4950	0	0	0	0	505	508
4951	0	0	0	0	508	506
4952	0	0	0	0	507	506
4953	0	0	0	0	508	508
4954	0	0	0	0	507	507
4955	0	0	0	0	510	507
4956	0	0	0	0	507	508
4957	0	0	0	0	507	508
4958	0	0	0	0	507	507
4959	0	0	0	0	507	506
4960	0	0	0	0	505	505
4961	0	0	0	0	506	508
4962	0	0	0	0	506	507
4963	0	0	0	0	507	508
4964	0	0	0	0	505	505
4965	0	0	0	0	505	507
4966	0	0	0	0	506	507
4967	0	0	0	0	508	508
4968	0	0	0	0	508	508
4969	0	0	0	0	506	507
4970	0	0	0	0	505	508
4971	0	0	0	0	506	506
4972	0	0	0	0	507	507
4973	0	0	0	0	509	507
4974	0	0	0	0	508	508
4975	0	0	0	0	507	505
4976	0	0	0	0	505	507
4977	0	0	0	0	508	508
4978	0	0	0	0	508	505
4979	0	0	0	0	506	506
4980	0	0	0	0	506	505
4981	0	0	0	0	506	507
4982	0	0	0	0	509	509
4983	0	0	0	0	508	508
4984	0	0	0	0	507	508
4985	0	0	0	0	504	507
4986	0	0	0	0	506	507
4987	0	0	0	0	507	507
4988	0	0	0	0	508	507
4989	0	0	0	0	507	509
4990	0	0	0	0	508	505
4991	0	0	0	0	507	507
4992	0	0	0	0	507	506
4993	0	0	0	0	507	505
4994	0	0	0	0	507	505
4995	0	0	0	0	507	508
4996	0	0	0	0	508	506
4997	0	0	0	0	506	505
4998	0	0	0	0	508	509
4999	0	0	0	0	505	508
5000	0	0	0	0	505	507
5001	0	0	0	0	508	505
5002	0	0	0	0	508	507
5003	0	0	0	0	508	508
5004	0	0	0	0	507	508
5005	0	0	0	0	507	508
5006	0	0	0	0	506	507
5007	0	0	0	0	508	507
5008	0	0	0	0	507	506
5009	0	0	0	0	506	507
5010	0	0	0	0	504	508
5011	0	0	0	0	507	507
5012	0	0	0	0	504	506
5013	0	0	0	0	505	505
5014	0	0	0	0	506	506
5015	0	0	0	0	507	507
5016	0	0	0	0	505	507
5017	0	0	0	0	508	506
5018	0	0	0	0	507	504
5019	0	0	0	0	507	506
5020	0	0	0	0	508	507
5021	0	0	0	0	508	506
5022	0	0	0	0	507	508
5023	0	0	0	0	507	506
5024	0	0	0	0	506	507
5025	0	0	0	0	506	508
5026	0	0	0	0	507	507
5027	0	0	0	0	507	506
5028	0	0	0	0	507	508
5029	0	0	0	0	507	508
5030	0	0	0	0	508	508
5031	0	0	0	0	506	507
5032	0	0	0	0	507	509
5033	0	0	0	0	507	508
5034	0	0	0	0	509	506
5035	0	0	0	0	507	507
5036	0	0	0	0	508	505
5037	0	0	0	0	505	507
5038	0	0	0	0	508	507
5039	0	0	0	0	507	507
5040	0	0	0	0	507	507
5041	0	0	0	0	505	508
5042	0	0	0	0	507	507
5043	0	0	0	0	508	505
5044	0	0	0	0	507	508
5045	0	0	0	0	507	507
5046	0	0	0	0	507	508
5047	0	0	0	0	506	506
5048	0	0	0	0	507	507
5049	0	0	0	0	505	507
5050	0	0	0	0	507	507
5051	0	0	0	0	508	508
5052	0	0	0	0	507	507
5053	0	0	0	0	508	506
5054	0	0	0	0	508	507
5055	0	0	0	0	507	508
5056	0	0	0	0	506	507
5057	0	0	0	0	506	507
5058	0	0	0	0	507	510
5059	0	0	0	0	504	505
5060	0	0	0	0	508	506
5061	0	0	0	0	505	505
5062	0	0	0	0	508	507
5063	0	0	0	0	509	507
5064	0	0	0	0	507	507
5065	0	0	0	0	509	505
5066	0	0	0	0	506	507
5067	0	0	0	0	507	506
5068	0	0	0	0	508	503
5069	0	0	0	0	504	507
5070	0	0	0	0	505	505
5071	0	0	0	0	507	506
5072	0	0	0	0	508	504
5073	0	0	0	0	507	504
5074	0	0	0	0	506	505
5075	0	0	0	0	508	508
5076	0	0	0	0	507	508
5077	0	0	0	0	506	506
5078	0	0	0	0	506	507
5079	0	0	0	0	507	504
5080	0	0	0	0	507	507
5081	0	0	0	0	504	507
5082	0	0	0	0	506	507
5083	0	0	0	0	508	509
5084	0	0	0	0	505	508
5085	0	0	0	0	507	507
5086	0	0	0	0	507	508
5087	0	0	0	0	508	508
5088	0	0	0	0	507	508
5089	0	0	0	0	508	511
5090	0	0	0	0	507	510
5091	0	0	0	0	508	511
5092	0	0	0	0	507	511
5093	0	0	0	0	507	512
5094	0	0	0	0	506	508
5095	0	0	0	0	506	510
5096	0	0	0	0	508	512
5097	0	0	0	0	507	510
5098	0	0	0	0	507	510
5099	0	0	0	0	506	510
5100	0	0	0	0	507	511
5101	0	0	0	0	508	510
5102	0	0	0	0	507	510
5103	0	0	0	0	506	507
5104	0	0	0	0	507	508
5105	0	0	0	0	507	507
5106	0	0	0	0	504	506
5107	0	0	0	0	507	507
5108	0	0	0	0	508	504
5109	0	0	0	0	508	504
5110	0	0	0	0	506	505
5111	0	0	0	0	507	503
5112	0	0	0	0	507	506
5113	0	0	0	0	506	505
5114	0	0	0	0	505	505
5115	0	0	0	0	506	504
5116	0	0	0	0	507	504
5117	0	0	0	0	507	505
5118	0	0	0	0	507	504
5119	0	0	0	0	507	505
5120	0	0	0	0	508	504
5121	0	0	0	0	508	506
5122	0	0	0	0	505	505
5123	0	0	0	0	508	507
5124	0	0	0	0	508	506
5125	0	0	0	0	507	507
5126	0	0	0	0	507	506
5127	0	0	0	0	507	507
5128	0	0	0	0	508	504
5129	0	0	0	0	507	506
5130	0	0	0	0	507	506
5131	0	0	0	0	507	507
5132	0	0	0	0	507	507
5133	0	0	0	0	508	505
5134	0	0	0	0	508	507
5135	0	0	0	0	505	507
5136	0	0	0	0	508	507
5137	0	0	0	0	508	508
5138	0	0	0	0	505	507
5139	0	0	0	0	505	505
5140	0	0	0	0	506	509
5141	0	0	0	0	505	506
5142	0	0	0	0	506	506
5143	0	0	0	0	508	507
5144	0	0	0	0	507	506
5145	0	0	0	0	506	506
5146	0	0	0	0	507	509
5147	0	0	0	0	508	509
5148	0	0	0	0	507	506
5149	0	0	0	0	507	508
5150	0	0	0	0	509	507
5151	0	0	0	0	507	507
5152	0	0	0	0	505	508
5153	0	0	0	0	507	508
5154	0	0	0	0	507	508
5155	0	0	0	0	507	509
5156	0	0	0	0	505	507
5157	0	0	0	0	507	507
5158	0	0	0	0	507	506
5159	0	0	0	0	507	507
5160	0	0	0	0	507	505
5161	0	0	0	0	507	505
5162	0	0	0	0	506	506
5163	0	0	0	0	508	507
5164	0	0	0	0	507	507
5165	0	0	0	0	507	507
5166	0	0	0	0	506	506
5167	0	0	0	0	507	506
5168	0	0	0	0	506	508
5169	0	0	0	0	508	505
5170	0	0	0	0	506	507
5171	0	0	0	0	506	507
5172	0	0	0	0	507	509
5173	0	0	0	0	507	508
5174	0	0	0	0	506	508
5175	0	0	0	0	507	507
5176	0	0	0	0	505	507
5177	0	0	0	0	507	505
5178	0	0	0	0	508	506
5179	0	0	0	0	509	506
5180	0	0	0	0	510	505
5181	0	0	0	0	507	505
5182	0	0	0	0	508	507
5183	0	0	0	0	505	506
5184	0	0	0	0	505	507
5185	0	0	0	0	506	505
5186	0	0	0	0	506	507
5187	0	0	0	0	508	507
5188	0	0	0	0	508	509
5189	0	0	0	0	507	507
5190	0	0	0	0	505	506
5191	0	0	0	0	506	505
5192	0	0	0	0	507	508
5193	0	0	0	0	506	510
5194	0	0	0	0	505	507
5195	0	0	0	0	506	507
5196	0	0	0	0	507	506
5197	0	0	0	0	506	506
5198	0	0	0	0	508	508
5199	0	0	0	0	506	507
5200	0	0	0	0	506	507
5201	0	0	0	0	509	507
5202	0	0	0	0	508	508
5203	0	0	0	0	507	509
5204	0	0	0	0	506	508
5205	0	0	0	0	506	505
5206	0	0	0	0	508	507
5207	0	0	0	0	507	506
5208	0	0	0	0	505	505
5209	0	0	0	0	506	507
5210	0	0	0	0	508	507
5211	0	0	0	0	508	507
5212	0	0	0	0	508	509
5213	0	0	0	0	504	510
5214	0	0	0	0	506	508
5215	0	0	0	0	507	506
5216	0	0	0	0	506	507
5217	0	0	0	0	508	508
5218	0	0	0	0	505	507
5219	0	0	0	0	505	505
5220	0	0	0	0	505	507
5221	0	0	0	0	508	507
5222	0	0	0	0	507	505
5223	0	0	0	0	507	505
5224	0	0	0	0	507	506
5225	0	0	0	0	506	505
5226	0	0	0	0	508	506
5227	0	0	0	0	505	507
5228	0	0	0	0	506	508
5229	0	0	0	0	509	505
5230	0	0	0	0	505	508
5231	0	0	0	0	506	506
5232	0	0	0	0	509	508
5233	0	0	0	0	509	508
5234	0	0	0	0	508	507
5235	0	0	0	0	507	508
5236	0	0	0	0	507	505
5237	0	0	0	0	507	506
5238	0	0	0	0	507	508
5239	0	0	0	0	505	506
5240	0	0	0	0	507	508
5241	0	0	0	0	505	506
5242	0	0	0	0	507	505
5243	0	0	0	0	506	506
5244	0	0	0	0	506	506
5245	0	0	0	0	508	506
5246	0	0	0	0	505	506
5247	0	0	0	0	508	508
5248	0	0	0	0	508	508
5249	0	0	0	0	507	508
5250	0	0	0	0	506	508
5251	0	0	0	0	506	506
5252	0	0	0	0	508	508
5253	0	0	0	0	508	508
5254	0	0	0	0	507	507
5255	0	0	0	0	505	507
5256	0	0	0	0	508	507
5257	0	0	0	0	507	505
5258	0	0	0	0	506	507
5259	0	0	0	0	508	508
5260	0	0	0	0	507	509
5261	0	0	0	0	507	506
5262	0	0	0	0	507	506
5263	0	0	0	0	507	505
5264	0	0	0	0	507	507
5265	0	0	0	0	507	506
5266	0	0	0	0	506	509
5267	0	0	0	0	507	507
5268	0	0	0	0	508	508
5269	0	0	0	0	507	506
5270	0	0	0	0	506	507
5271	0	0	0	0	505	507
5272	0	0	0	0	504	505
5273	0	0	0	0	507	509
5274	0	0	0	0	507	507
5275	0	0	0	0	506	506
5276	0	0	0	0	506	508
5277	0	0	0	0	508	506
5278	0	0	0	0	509	506
5279	0	0	0	0	506	503
5280	0	0	0	0	506	507
5281	0	0	0	0	507	506
5282	0	0	0	0	509	507
5283	0	0	0	0	508	508
5284	0	0	0	0	508	507
5285	0	0	0	0	507	508
5286	0	0	0	0	505	507
5287	0	0	0	0	507	506
5288	0	0	0	0	509	507
5289	0	0	0	0	508	509
5290	0	0	0	0	507	506
5291	0	0	0	0	507	509
5292	0	0	0	0	508	509
5293	0	0	0	0	508	508
5294	0	0	0	0	508	507
5295	0	0	0	0	508	506
5296	0	0	0	0	506	506
5297	0	0	0	0	507	507
5298	0	0	0	0	505	507
5299	0	0	0	0	507	506
5300	0	0	0	0	507	507
5301	0	0	0	0	506	507
5302	0	0	0	0	505	507
5303	0	0	0	0	506	506
5304	0	0	0	0	507	508
5305	0	0	0	0	508	506
5306	0	0	0	0	506	508
5307	0	0	0	0	506	505
5308	0	0	0	0	505	507
5309	0	0	0	0	507	507
5310	0	0	0	0	508	509
5311	0	0	0	0	506	506
5312	0	0	0	0	505	505
5313	0	0	0	0	506	507
5314	0	0	0	0	508	507
5315	0	0	0	0	507	509
5316	0	0	0	0	506	507
5317	0	0	0	0	508	506
5318	0	0	0	0	508	507
5319	0	0	0	0	506	507
5320	0	0	0	0	506	507
5321	0	0	0	0	508	507
5322	0	0	0	0	505	508
5323	0	0	0	0	507	508
5324	0	0	0	0	508	506
5325	0	0	0	0	507	507
5326	0	0	0	0	508	507
5327	0	0	0	0	507	507
5328	0	0	0	0	506	508
5329	0	0	0	0	506	507
5330	0	0	0	0	508	507
5331	0	0	0	0	508	507
5332	0	0	0	0	505	505
5333	0	0	0	0	506	505
5334	0	0	0	0	506	505
5335	0	0	0	0	508	506
5336	0	0	0	0	507	507
5337	0	0	0	0	507	507
5338	0	0	0	0	507	507
5339	0	0	0	0	506	508
5340	0	0	0	0	506	508
5341	0	0	0	0	507	508
5342	0	0	0	0	505	504
5343	0	0	0	0	507	507
5344	0	0	0	0	508	507
5345	0	0	0	0	506	508
5346	0	0	0	0	507	509
5347	0	0	0	0	506	507
5348	0	0	0	0	508	506
5349	0	0	0	0	505	506
5350	0	0	0	0	507	507
5351	0	0	0	0	508	504
5352	0	0	0	0	507	505
5353	0	0	0	0	508	507
5354	0	0	0	0	507	508
5355	0	0	0	0	507	507
5356	0	0	0	0	506	506
5357	0	0	0	0	507	508
5358	0	0	0	0	507	506
5359	0	0	0	0	505	507
5360	0	0	0	0	507	507
5361	0	0	0	0	506	508
5362	0	0	0	0	507	505
5363	0	0	0	0	508	508
5364	0	0	0	0	508	507
5365	0	0	0	0	507	508
5366	0	0	0	0	505	506
5367	0	0	0	0	508	507
5368	0	0	0	0	506	507
5369	0	0	0	0	507	507
5370	0	0	0	0	507	507
5371	0	0	0	0	507	506
5372	0	0	0	0	507	505
5373	0	0	0	0	507	506
5374	0	0	0	0	506	506
5375	0	0	0	0	507	508
5376	0	0	0	0	505	507
5377	0	0	0	0	507	506
5378	0	0	0	0	507	508
5379	0	0	0	0	507	508
5380	0	0	0	0	509	507
5381	0	0	0	0	507	508
5382	0	0	0	0	509	508
5383	0	0	0	0	506	507
5384	0	0	0	0	508	507
5385	0	0	0	0	505	506
5386	0	0	0	0	508	506
5387	0	0	0	0	504	508
5388	0	0	0	0	505	507
5389	0	0	0	0	506	507
5390	0	0	0	0	506	507
5391	0	0	0	0	509	507
5392	0	0	0	0	508	508
5393	0	0	0	0	509	507
5394	0	0	0	0	507	507
5395	0	0	0	0	508	505
5396	0	0	0	0	507	505
5397	0	0	0	0	506	508
5398	0	0	0	0	507	507
5399	0	0	0	0	504	508
5400	0	0	0	0	505	507
5401	0	0	0	0	507	505
5402	0	0	0	0	506	507
5403	0	0	0	0	507	508
5404	0	0	0	0	505	505
5405	0	0	0	0	505	506
5406	0	0	0	0	505	507
5407	0	0	0	0	506	508
5408	0	0	0	0	508	508
5409	0	0	0	0	507	508
5410	0	0	0	0	509	508
5411	0	0	0	0	508	506
5412	0	0	0	0	508	507
5413	0	0	0	0	508	506
5414	0	0	0	0	508	508
5415	0	0	0	0	509	508
5416	0	0	0	0	508	505
5417	0	0	0	0	507	507
5418	0	0	0	0	508	505
5419	0	0	0	0	507	508
5420	0	0	0	0	507	506
5421	0	0	0	0	506	504
5422	0	0	0	0	506	508
5423	0	0	0	0	505	507
5424	0	0	0	0	508	507
5425	0	0	0	0	505	510
5426	0	0	0	0	507	507
5427	0	0	0	0	505	509
5428	0	0	0	0	505	506
5429	0	0	0	0	507	508
5430	0	0	0	0	507	509
5431	0	0	0	0	506	505
5432	0	0	0	0	508	504
5433	0	0	0	0	508	507
5434	0	0	0	0	505	507
5435	0	0	0	0	508	507
5436	0	0	0	0	508	506
5437	0	0	0	0	508	507
5438	0	0	0	0	507	507
5439	0	0	0	0	507	505
5440	0	0	0	0	508	507
5441	0	0	0	0	509	507
5442	0	0	0	0	508	508
5443	0	0	0	0	506	509
5444	0	0	0	0	507	508
5445	0	0	0	0	506	507
5446	0	0	0	0	506	507
5447	0	0	0	0	505	508
5448	0	0	0	0	505	507
5449	0	0	0	0	506	505
5450	0	0	0	0	506	507
5451	0	0	0	0	507	507
5452	0	0	0	0	508	507
5453	0	0	0	0	507	504
5454	0	0	0	0	506	506
5455	0	0	0	0	505	508
5456	0	0	0	0	505	504
5457	0	0	0	0	508	508
5458	0	0	0	0	505	508
5459	0	0	0	0	507	506
5460	0	0	0	0	509	507
5461	0	0	0	0	508	507
5462	0	0	0	0	508	508
5463	0	0	0	0	509	506
5464	0	0	0	0	507	506
5465	0	0	0	0	509	508
5466	0	0	0	0	506	507
5467	0	0	0	0	508	507
5468	0	0	0	0	508	506
5469	0	0	0	0	505	507
5470	0	0	0	0	507	506
5471	0	0	0	0	508	507
5472	0	0	0	0	507	506
5473	0	0	0	0	507	508
5474	0	0	0	0	507	508
