# OpenSignals Text File Format. Version 1
# {"98:D3:11:FE:05:A2": {"position": 0, "device": "bitalino_rev", "device name": "98:D3:11:FE:05:A2", "device connection": "BTH98:D3:11:FE:05:A2", "sampling rate": 1000, "resolution": [4, 1, 1, 1, 1, 10, 10], "firmware version": 1282, "comments": "", "keywords": "", "mode": 0, "sync interval": 2, "date": "2026-6-26", "time": "15:37:1.661", "channels": [1, 2], "sensor": ["EMGBITREV", "EMGBITREV"], "label": ["A1", "A2"], "column": ["nSeq", "I1", "I2", "O1", "O2", "A1", "A2"], "special": [{}, {}], "digital IO": [0, 0, 1, 1]}}
# EndOfHeader
0	0	0	0	0	508	512	
1	0	0	0	0	512	510	
2	0	0	0	0	511	511	
3	0	0	0	0	515	510	
4	0	0	0	0	513	509	
5	0	0	0	0	510	508	
6	0	0	0	0	512	510	
7	0	0	0	0	513	510	
8	0	0	0	0	512	511	
9	0	0	0	0	512	510	
10	0	0	0	0	510	510	
11	0	0	0	0	511	508	
12	0	0	0	0	511	510	
13	0	0	0	0	512	511	
14	0	0	0	0	509	512	
15	0	0	0	0	510	511	
0	0	0	0	0	512	510	
1	0	0	0	0	512	510	
2	0	0	0	0	515	509	
3	0	0	0	0	512	511	
4	0	0	0	0	514	514	
5	0	0	0	0	511	512	
6	0	0	0	0	511	508	
7	0	0	0	0	508	509	
8	0	0	0	0	509	509	
9	0	0	0	0	508	509	
10	0	0	0	0	505	510	
11	0	0	0	0	504	511	
12	0	0	0	0	505	511	
13	0	0	0	0	507	510	
14	0	0	0	0	508	509	
15	0	0	0	0	509	511	
0	0	0	0	0	508	511	
1	0	0	0	0	508	513	
2	0	0	0	0	511	510	
3	0	0	0	0	510	509	
4	0	0	0	0	512	510	
5	0	0	0	0	511	509	
6	0	0	0	0	511	513	
7	0	0	0	0	514	509	
8	0	0	0	0	514	509	
9	0	0	0	0	512	511	
10	0	0	0	0	511	511	
11	0	0	0	0	513	511	
12	0	0	0	0	512	510	
13	0	0	0	0	509	512	
14	0	0	0	0	507	512	
15	0	0	0	0	512	511	
0	0	0	0	0	514	511	
1	0	0	0	0	511	510	
2	0	0	0	0	512	512	
3	0	0	0	0	509	509	
4	0	0	0	0	508	510	
5	0	0	0	0	511	511	
6	0	0	0	0	511	508	
7	0	0	0	0	511	510	
8	0	0	0	0	512	510	
9	0	0	0	0	511	509	
10	0	0	0	0	512	508	
11	0	0	0	0	512	509	
12	0	0	0	0	512	512	
13	0	0	0	0	513	510	
14	0	0	0	0	511	509	
15	0	0	0	0	513	509	
0	0	0	0	0	513	510	
1	0	0	0	0	513	511	
2	0	0	0	0	512	512	
3	0	0	0	0	510	511	
4	0	0	0	0	511	512	
5	0	0	0	0	508	510	
6	0	0	0	0	508	512	
7	0	0	0	0	510	510	
8	0	0	0	0	507	511	
9	0	0	0	0	508	511	
10	0	0	0	0	507	510	
11	0	0	0	0	507	511	
12	0	0	0	0	507	510	
13	0	0	0	0	507	508	
14	0	0	0	0	508	512	
15	0	0	0	0	509	511	
0	0	0	0	0	505	511	
1	0	0	0	0	508	512	
2	0	0	0	0	511	509	
3	0	0	0	0	512	509	
4	0	0	0	0	513	511	
5	0	0	0	0	513	508	
6	0	0	0	0	514	511	
7	0	0	0	0	513	510	
8	0	0	0	0	513	508	
9	0	0	0	0	513	511	
10	0	0	0	0	514	511	
11	0	0	0	0	515	510	
12	0	0	0	0	512	510	
13	0	0	0	0	513	512	
14	0	0	0	0	511	511	
15	0	0	0	0	510	510	
0	0	0	0	0	510	509	
1	0	0	0	0	510	510	
2	0	0	0	0	510	511	
3	0	0	0	0	512	508	
4	0	0	0	0	510	511	
5	0	0	0	0	511	511	
6	0	0	0	0	511	510	
7	0	0	0	0	510	511	
8	0	0	0	0	509	510	
9	0	0	0	0	510	512	
10	0	0	0	0	512	511	
11	0	0	0	0	510	510	
12	0	0	0	0	511	510	
13	0	0	0	0	511	511	
14	0	0	0	0	510	510	
15	0	0	0	0	510	510	
0	0	0	0	0	511	511	
1	0	0	0	0	510	513	
2	0	0	0	0	511	509	
3	0	0	0	0	512	508	
4	0	0	0	0	510	511	
5	0	0	0	0	509	509	
6	0	0	0	0	508	509	
7	0	0	0	0	509	510	
8	0	0	0	0	510	512	
9	0	0	0	0	509	509	
10	0	0	0	0	511	510	
11	0	0	0	0	512	510	
12	0	0	0	0	513	510	
13	0	0	0	0	511	509	
14	0	0	0	0	512	511	
15	0	0	0	0	510	511	
0	0	0	0	0	508	511	
1	0	0	0	0	509	512	
2	0	0	0	0	508	511	
3	0	0	0	0	511	512	
4	0	0	0	0	509	509	
5	0	0	0	0	511	510	
6	0	0	0	0	512	508	
7	0	0	0	0	512	507	
8	0	0	0	0	512	509	
9	0	0	0	0	511	511	
10	0	0	0	0	510	507	
11	0	0	0	0	510	510	
12	0	0	0	0	511	511	
13	0	0	0	0	509	513	
14	0	0	0	0	509	511	
15	0	0	0	0	511	509	
0	0	0	0	0	512	510	
1	0	0	0	0	511	510	
2	0	0	0	0	511	511	
3	0	0	0	0	510	511	
4	0	0	0	0	512	510	
5	0	0	0	0	511	511	
6	0	0	0	0	514	509	
7	0	0	0	0	517	511	
8	0	0	0	0	514	511	
9	0	0	0	0	514	511	
10	0	0	0	0	512	511	
11	0	0	0	0	511	509	
12	0	0	0	0	504	512	
13	0	0	0	0	505	511	
14	0	0	0	0	507	508	
15	0	0	0	0	508	511	
0	0	0	0	0	510	509	
1	0	0	0	0	512	510	
2	0	0	0	0	515	509	
3	0	0	0	0	516	511	
4	0	0	0	0	512	510	
5	0	0	0	0	509	511	
6	0	0	0	0	511	511	
7	0	0	0	0	506	508	
8	0	0	0	0	506	510	
9	0	0	0	0	506	509	
10	0	0	0	0	504	511	
11	0	0	0	0	505	510	
12	0	0	0	0	511	510	
13	0	0	0	0	511	511	
14	0	0	0	0	512	510	
15	0	0	0	0	514	510	
0	0	0	0	0	515	511	
1	0	0	0	0	513	511	
2	0	0	0	0	512	509	
3	0	0	0	0	511	508	
4	0	0	0	0	513	510	
5	0	0	0	0	511	510	
6	0	0	0	0	513	510	
7	0	0	0	0	513	510	
8	0	0	0	0	513	510	
9	0	0	0	0	513	512	
10	0	0	0	0	515	511	
11	0	0	0	0	517	508	
12	0	0	0	0	514	509	
13	0	0	0	0	511	510	
14	0	0	0	0	511	509	
15	0	0	0	0	507	512	
0	0	0	0	0	503	511	
1	0	0	0	0	502	510	
2	0	0	0	0	504	509	
3	0	0	0	0	504	510	
4	0	0	0	0	506	510	
5	0	0	0	0	509	510	
6	0	0	0	0	509	511	
7	0	0	0	0	511	508	
8	0	0	0	0	512	511	
9	0	0	0	0	512	512	
10	0	0	0	0	511	510	
11	0	0	0	0	511	510	
12	0	0	0	0	511	510	
13	0	0	0	0	512	510	
14	0	0	0	0	511	511	
15	0	0	0	0	511	510	
0	0	0	0	0	514	510	
1	0	0	0	0	513	512	
2	0	0	0	0	510	512	
3	0	0	0	0	514	512	
4	0	0	0	0	512	510	
5	0	0	0	0	511	509	
6	0	0	0	0	510	510	
7	0	0	0	0	511	511	
8	0	0	0	0	510	508	
9	0	0	0	0	505	510	
10	0	0	0	0	508	511	
11	0	0	0	0	510	511	
12	0	0	0	0	512	510	
13	0	0	0	0	514	511	
14	0	0	0	0	511	511	
15	0	0	0	0	511	512	
0	0	0	0	0	511	509	
1	0	0	0	0	513	510	
2	0	0	0	0	512	511	
3	0	0	0	0	511	507	
4	0	0	0	0	510	510	
5	0	0	0	0	508	511	
6	0	0	0	0	510	510	
7	0	0	0	0	508	510	
8	0	0	0	0	508	509	
9	0	0	0	0	512	509	
10	0	0	0	0	512	512	
11	0	0	0	0	512	509	
12	0	0	0	0	511	511	
13	0	0	0	0	510	515	
14	0	0	0	0	509	514	
15	0	0	0	0	508	513	
0	0	0	0	0	508	510	
1	0	0	0	0	510	511	
2	0	0	0	0	513	506	
3	0	0	0	0	514	506	
4	0	0	0	0	512	508	
5	0	0	0	0	512	509	
6	0	0	0	0	510	510	
7	0	0	0	0	511	511	
8	0	0	0	0	511	510	
9	0	0	0	0	509	511	
10	0	0	0	0	508	511	
11	0	0	0	0	510	511	
12	0	0	0	0	511	513	
13	0	0	0	0	512	510	
14	0	0	0	0	514	511	
15	0	0	0	0	518	510	
0	0	0	0	0	515	509	
1	0	0	0	0	512	510	
2	0	0	0	0	510	510	
3	0	0	0	0	509	511	
4	0	0	0	0	505	514	
5	0	0	0	0	504	513	
6	0	0	0	0	504	511	
7	0	0	0	0	506	509	
8	0	0	0	0	507	508	
9	0	0	0	0	511	510	
10	0	0	0	0	518	508	
11	0	0	0	0	520	510	
12	0	0	0	0	519	510	
13	0	0	0	0	519	509	
14	0	0	0	0	514	508	
15	0	0	0	0	508	511	
0	0	0	0	0	505	509	
1	0	0	0	0	501	510	
2	0	0	0	0	499	511	
3	0	0	0	0	501	511	
4	0	0	0	0	501	510	
5	0	0	0	0	505	510	
6	0	0	0	0	505	509	
7	0	0	0	0	509	510	
8	0	0	0	0	511	509	
9	0	0	0	0	512	510	
10	0	0	0	0	512	511	
11	0	0	0	0	513	509	
12	0	0	0	0	513	510	
13	0	0	0	0	516	508	
14	0	0	0	0	519	510	
15	0	0	0	0	519	512	
0	0	0	0	0	516	513	
1	0	0	0	0	515	509	
2	0	0	0	0	512	512	
3	0	0	0	0	511	511	
4	0	0	0	0	509	511	
5	0	0	0	0	506	511	
6	0	0	0	0	510	509	
7	0	0	0	0	505	509	
8	0	0	0	0	510	510	
9	0	0	0	0	511	511	
10	0	0	0	0	513	510	
11	0	0	0	0	508	510	
12	0	0	0	0	506	511	
13	0	0	0	0	507	512	
14	0	0	0	0	508	514	
15	0	0	0	0	509	512	
0	0	0	0	0	511	511	
1	0	0	0	0	512	512	
2	0	0	0	0	512	510	
3	0	0	0	0	515	508	
4	0	0	0	0	513	510	
5	0	0	0	0	511	511	
6	0	0	0	0	512	509	
7	0	0	0	0	512	508	
8	0	0	0	0	511	510	
9	0	0	0	0	512	510	
10	0	0	0	0	512	510	
11	0	0	0	0	512	512	
12	0	0	0	0	510	509	
13	0	0	0	0	510	512	
14	0	0	0	0	512	513	
15	0	0	0	0	510	509	
0	0	0	0	0	513	512	
1	0	0	0	0	511	509	
2	0	0	0	0	510	509	
3	0	0	0	0	511	510	
4	0	0	0	0	515	509	
5	0	0	0	0	514	510	
6	0	0	0	0	512	511	
7	0	0	0	0	507	510	
8	0	0	0	0	509	511	
9	0	0	0	0	508	512	
10	0	0	0	0	507	511	
11	0	0	0	0	507	511	
12	0	0	0	0	508	511	
13	0	0	0	0	509	510	
14	0	0	0	0	510	511	
15	0	0	0	0	510	511	
0	0	0	0	0	512	511	
1	0	0	0	0	509	511	
2	0	0	0	0	512	511	
3	0	0	0	0	509	510	
4	0	0	0	0	510	511	
5	0	0	0	0	510	512	
6	0	0	0	0	510	511	
7	0	0	0	0	509	514	
8	0	0	0	0	511	511	
9	0	0	0	0	511	512	
10	0	0	0	0	513	509	
11	0	0	0	0	514	509	
12	0	0	0	0	510	509	
13	0	0	0	0	512	512	
14	0	0	0	0	514	515	
15	0	0	0	0	510	514	
0	0	0	0	0	511	515	
1	0	0	0	0	513	510	
2	0	0	0	0	512	512	
3	0	0	0	0	513	513	
4	0	0	0	0	513	512	
5	0	0	0	0	513	511	
6	0	0	0	0	510	511	
7	0	0	0	0	510	511	
8	0	0	0	0	510	507	
9	0	0	0	0	510	505	
10	0	0	0	0	512	502	
11	0	0	0	0	509	505	
12	0	0	0	0	509	505	
13	0	0	0	0	510	507	
14	0	0	0	0	510	506	
15	0	0	0	0	511	505	
0	0	0	0	0	509	504	
1	0	0	0	0	509	507	
2	0	0	0	0	510	507	
3	0	0	0	0	511	507	
4	0	0	0	0	507	505	
5	0	0	0	0	508	504	
6	0	0	0	0	515	508	
7	0	0	0	0	517	509	
8	0	0	0	0	517	510	
9	0	0	0	0	515	513	
10	0	0	0	0	513	512	
11	0	0	0	0	513	514	
12	0	0	0	0	516	514	
13	0	0	0	0	516	513	
14	0	0	0	0	515	513	
15	0	0	0	0	513	511	
0	0	0	0	0	511	513	
1	0	0	0	0	507	512	
2	0	0	0	0	508	511	
3	0	0	0	0	501	511	
4	0	0	0	0	499	514	
5	0	0	0	0	496	513	
6	0	0	0	0	498	511	
7	0	0	0	0	502	511	
8	0	0	0	0	505	512	
9	0	0	0	0	507	511	
10	0	0	0	0	513	511	
11	0	0	0	0	512	510	
12	0	0	0	0	510	512	
13	0	0	0	0	513	510	
14	0	0	0	0	515	511	
15	0	0	0	0	515	511	
0	0	0	0	0	517	511	
1	0	0	0	0	513	513	
2	0	0	0	0	513	511	
3	0	0	0	0	514	510	
4	0	0	0	0	512	510	
5	0	0	0	0	511	509	
6	0	0	0	0	511	510	
7	0	0	0	0	512	510	
8	0	0	0	0	512	511	
9	0	0	0	0	512	512	
10	0	0	0	0	514	510	
11	0	0	0	0	511	511	
12	0	0	0	0	510	512	
13	0	0	0	0	511	511	
14	0	0	0	0	508	511	
15	0	0	0	0	512	510	
0	0	0	0	0	510	510	
1	0	0	0	0	510	511	
2	0	0	0	0	513	509	
3	0	0	0	0	512	511	
4	0	0	0	0	510	510	
5	0	0	0	0	510	509	
6	0	0	0	0	510	510	
7	0	0	0	0	507	510	
8	0	0	0	0	507	511	
9	0	0	0	0	509	511	
10	0	0	0	0	508	509	
11	0	0	0	0	508	510	
12	0	0	0	0	508	509	
13	0	0	0	0	508	510	
14	0	0	0	0	509	509	
15	0	0	0	0	509	510	
0	0	0	0	0	511	508	
1	0	0	0	0	515	509	
2	0	0	0	0	517	511	
3	0	0	0	0	512	510	
4	0	0	0	0	512	510	
5	0	0	0	0	512	508	
6	0	0	0	0	512	508	
7	0	0	0	0	513	510	
8	0	0	0	0	508	511	
9	0	0	0	0	509	511	
10	0	0	0	0	508	510	
11	0	0	0	0	508	509	
12	0	0	0	0	510	511	
13	0	0	0	0	511	512	
14	0	0	0	0	513	510	
15	0	0	0	0	510	508	
0	0	0	0	0	507	510	
1	0	0	0	0	509	511	
2	0	0	0	0	511	511	
3	0	0	0	0	510	513	
4	0	0	0	0	510	510	
5	0	0	0	0	512	510	
6	0	0	0	0	512	513	
7	0	0	0	0	512	512	
8	0	0	0	0	511	508	
9	0	0	0	0	513	510	
10	0	0	0	0	515	510	
11	0	0	0	0	514	511	
12	0	0	0	0	513	510	
13	0	0	0	0	515	512	
14	0	0	0	0	513	510	
15	0	0	0	0	513	509	
0	0	0	0	0	511	508	
1	0	0	0	0	513	510	
2	0	0	0	0	512	510	
3	0	0	0	0	508	509	
4	0	0	0	0	509	513	
5	0	0	0	0	511	510	
6	0	0	0	0	510	509	
7	0	0	0	0	506	509	
8	0	0	0	0	505	512	
9	0	0	0	0	506	508	
10	0	0	0	0	508	510	
11	0	0	0	0	504	511	
12	0	0	0	0	505	513	
13	0	0	0	0	510	512	
14	0	0	0	0	511	512	
15	0	0	0	0	513	511	
0	0	0	0	0	513	510	
1	0	0	0	0	514	509	
2	0	0	0	0	511	511	
3	0	0	0	0	509	512	
4	0	0	0	0	508	510	
5	0	0	0	0	508	510	
6	0	0	0	0	508	508	
7	0	0	0	0	507	509	
8	0	0	0	0	509	512	
9	0	0	0	0	511	511	
10	0	0	0	0	511	510	
11	0	0	0	0	511	508	
12	0	0	0	0	510	510	
13	0	0	0	0	512	511	
14	0	0	0	0	512	512	
15	0	0	0	0	516	511	
0	0	0	0	0	516	509	
1	0	0	0	0	514	509	
2	0	0	0	0	515	510	
3	0	0	0	0	513	512	
4	0	0	0	0	514	508	
5	0	0	0	0	511	511	
6	0	0	0	0	511	510	
7	0	0	0	0	510	509	
8	0	0	0	0	511	510	
9	0	0	0	0	509	512	
10	0	0	0	0	511	510	
11	0	0	0	0	511	512	
12	0	0	0	0	511	510	
13	0	0	0	0	511	508	
14	0	0	0	0	511	511	
15	0	0	0	0	508	509	
0	0	0	0	0	508	511	
1	0	0	0	0	508	513	
2	0	0	0	0	512	509	
3	0	0	0	0	509	508	
4	0	0	0	0	508	512	
5	0	0	0	0	508	510	
6	0	0	0	0	508	510	
7	0	0	0	0	507	510	
8	0	0	0	0	508	509	
9	0	0	0	0	508	512	
10	0	0	0	0	507	511	
11	0	0	0	0	508	510	
12	0	0	0	0	513	510	
13	0	0	0	0	512	509	
14	0	0	0	0	513	510	
15	0	0	0	0	513	509	
0	0	0	0	0	512	510	
1	0	0	0	0	512	510	
2	0	0	0	0	513	510	
3	0	0	0	0	514	511	
4	0	0	0	0	510	512	
5	0	0	0	0	511	509	
6	0	0	0	0	512	511	
7	0	0	0	0	512	510	
8	0	0	0	0	512	509	
9	0	0	0	0	512	510	
10	0	0	0	0	512	512	
11	0	0	0	0	511	512	
12	0	0	0	0	512	510	
13	0	0	0	0	513	510	
14	0	0	0	0	511	509	
15	0	0	0	0	513	510	
0	0	0	0	0	510	509	
1	0	0	0	0	513	511	
2	0	0	0	0	511	511	
3	0	0	0	0	508	512	
4	0	0	0	0	510	511	
5	0	0	0	0	510	510	
6	0	0	0	0	508	510	
7	0	0	0	0	508	511	
8	0	0	0	0	511	513	
9	0	0	0	0	511	510	
10	0	0	0	0	511	511	
11	0	0	0	0	510	508	
12	0	0	0	0	513	508	
13	0	0	0	0	511	509	
14	0	0	0	0	511	510	
15	0	0	0	0	509	511	
0	0	0	0	0	511	510	
1	0	0	0	0	511	512	
2	0	0	0	0	509	511	
3	0	0	0	0	511	511	
4	0	0	0	0	511	510	
5	0	0	0	0	510	510	
6	0	0	0	0	511	509	
7	0	0	0	0	510	509	
8	0	0	0	0	516	507	
9	0	0	0	0	512	508	
10	0	0	0	0	510	510	
11	0	0	0	0	511	512	
12	0	0	0	0	509	508	
13	0	0	0	0	511	510	
14	0	0	0	0	512	510	
15	0	0	0	0	509	511	
0	0	0	0	0	509	508	
1	0	0	0	0	511	508	
2	0	0	0	0	512	511	
3	0	0	0	0	513	510	
4	0	0	0	0	512	510	
5	0	0	0	0	511	511	
6	0	0	0	0	511	510	
7	0	0	0	0	509	510	
8	0	0	0	0	507	511	
9	0	0	0	0	509	510	
10	0	0	0	0	510	510	
11	0	0	0	0	511	510	
12	0	0	0	0	509	511	
13	0	0	0	0	512	510	
14	0	0	0	0	510	510	
15	0	0	0	0	510	510	
0	0	0	0	0	510	511	
1	0	0	0	0	511	511	
2	0	0	0	0	509	510	
3	0	0	0	0	510	511	
4	0	0	0	0	509	511	
5	0	0	0	0	510	512	
6	0	0	0	0	510	513	
7	0	0	0	0	510	510	
8	0	0	0	0	511	510	
9	0	0	0	0	513	508	
10	0	0	0	0	511	510	
11	0	0	0	0	511	510	
12	0	0	0	0	513	510	
13	0	0	0	0	513	509	
14	0	0	0	0	513	509	
15	0	0	0	0	512	511	
0	0	0	0	0	512	511	
1	0	0	0	0	508	511	
2	0	0	0	0	510	511	
3	0	0	0	0	510	511	
4	0	0	0	0	508	511	
5	0	0	0	0	511	510	
6	0	0	0	0	510	509	
7	0	0	0	0	510	510	
8	0	0	0	0	509	508	
9	0	0	0	0	510	511	
10	0	0	0	0	511	508	
11	0	0	0	0	510	509	
12	0	0	0	0	508	511	
13	0	0	0	0	507	510	
14	0	0	0	0	510	511	
15	0	0	0	0	511	511	
0	0	0	0	0	510	510	
1	0	0	0	0	509	511	
2	0	0	0	0	512	511	
3	0	0	0	0	510	509	
4	0	0	0	0	513	511	
5	0	0	0	0	512	511	
6	0	0	0	0	513	509	
7	0	0	0	0	512	511	
8	0	0	0	0	511	511	
9	0	0	0	0	513	509	
10	0	0	0	0	511	511	
11	0	0	0	0	511	511	
12	0	0	0	0	513	510	
13	0	0	0	0	510	509	
14	0	0	0	0	510	511	
15	0	0	0	0	510	510	
0	0	0	0	0	510	510	
1	0	0	0	0	511	510	
2	0	0	0	0	514	511	
3	0	0	0	0	516	510	
4	0	0	0	0	512	510	
5	0	0	0	0	511	510	
6	0	0	0	0	508	512	
7	0	0	0	0	508	510	
8	0	0	0	0	508	512	
9	0	0	0	0	509	512	
10	0	0	0	0	504	513	
11	0	0	0	0	505	510	
12	0	0	0	0	504	511	
13	0	0	0	0	508	509	
14	0	0	0	0	510	508	
15	0	0	0	0	512	508	
0	0	0	0	0	513	510	
1	0	0	0	0	511	510	
2	0	0	0	0	509	510	
3	0	0	0	0	512	511	
4	0	0	0	0	512	510	
5	0	0	0	0	512	511	
6	0	0	0	0	510	511	
7	0	0	0	0	511	509	
8	0	0	0	0	512	508	
9	0	0	0	0	512	509	
10	0	0	0	0	512	512	
11	0	0	0	0	511	510	
12	0	0	0	0	512	512	
13	0	0	0	0	513	512	
14	0	0	0	0	512	510	
15	0	0	0	0	514	510	
0	0	0	0	0	512	508	
1	0	0	0	0	512	509	
2	0	0	0	0	510	511	
3	0	0	0	0	511	511	
4	0	0	0	0	509	511	
5	0	0	0	0	508	510	
6	0	0	0	0	512	512	
7	0	0	0	0	515	511	
8	0	0	0	0	514	510	
9	0	0	0	0	515	510	
10	0	0	0	0	511	508	
11	0	0	0	0	513	508	
12	0	0	0	0	510	509	
13	0	0	0	0	508	511	
14	0	0	0	0	504	509	
15	0	0	0	0	504	511	
0	0	0	0	0	499	510	
1	0	0	0	0	502	509	
2	0	0	0	0	502	508	
3	0	0	0	0	503	511	
4	0	0	0	0	503	509	
5	0	0	0	0	508	508	
6	0	0	0	0	510	509	
7	0	0	0	0	511	511	
8	0	0	0	0	513	511	
9	0	0	0	0	514	511	
10	0	0	0	0	515	512	
11	0	0	0	0	516	511	
12	0	0	0	0	515	510	
13	0	0	0	0	515	511	
14	0	0	0	0	516	510	
15	0	0	0	0	513	511	
0	0	0	0	0	512	512	
1	0	0	0	0	511	513	
2	0	0	0	0	511	510	
3	0	0	0	0	512	508	
4	0	0	0	0	509	510	
5	0	0	0	0	510	510	
6	0	0	0	0	511	510	
7	0	0	0	0	512	510	
8	0	0	0	0	510	509	
9	0	0	0	0	512	509	
10	0	0	0	0	513	510	
11	0	0	0	0	512	510	
12	0	0	0	0	512	510	
13	0	0	0	0	512	511	
14	0	0	0	0	511	510	
15	0	0	0	0	509	511	
0	0	0	0	0	509	510	
1	0	0	0	0	508	511	
2	0	0	0	0	508	511	
3	0	0	0	0	509	511	
4	0	0	0	0	510	510	
5	0	0	0	0	509	510	
6	0	0	0	0	510	511	
7	0	0	0	0	512	512	
8	0	0	0	0	512	510	
9	0	0	0	0	511	512	
10	0	0	0	0	512	512	
11	0	0	0	0	512	511	
12	0	0	0	0	510	511	
13	0	0	0	0	508	512	
14	0	0	0	0	511	511	
15	0	0	0	0	509	513	
0	0	0	0	0	511	509	
1	0	0	0	0	513	507	
2	0	0	0	0	514	510	
3	0	0	0	0	512	508	
4	0	0	0	0	514	511	
5	0	0	0	0	512	511	
6	0	0	0	0	510	511	
7	0	0	0	0	511	512	
8	0	0	0	0	511	512	
9	0	0	0	0	512	511	
10	0	0	0	0	513	510	
11	0	0	0	0	515	508	
12	0	0	0	0	514	508	
13	0	0	0	0	512	509	
14	0	0	0	0	510	511	
15	0	0	0	0	508	510	
0	0	0	0	0	507	508	
1	0	0	0	0	505	513	
2	0	0	0	0	504	512	
3	0	0	0	0	503	509	
4	0	0	0	0	503	510	
5	0	0	0	0	503	514	
6	0	0	0	0	507	512	
7	0	0	0	0	509	509	
8	0	0	0	0	512	510	
9	0	0	0	0	514	513	
10	0	0	0	0	515	508	
11	0	0	0	0	516	509	
12	0	0	0	0	516	511	
13	0	0	0	0	514	507	
14	0	0	0	0	513	510	
15	0	0	0	0	513	510	
0	0	0	0	0	510	510	
1	0	0	0	0	508	508	
2	0	0	0	0	508	511	
3	0	0	0	0	510	508	
4	0	0	0	0	512	511	
5	0	0	0	0	514	511	
6	0	0	0	0	511	512	
7	0	0	0	0	514	511	
8	0	0	0	0	513	510	
9	0	0	0	0	511	510	
10	0	0	0	0	509	512	
11	0	0	0	0	511	511	
12	0	0	0	0	512	510	
13	0	0	0	0	512	508	
14	0	0	0	0	510	511	
15	0	0	0	0	512	510	
0	0	0	0	0	510	511	
1	0	0	0	0	510	512	
2	0	0	0	0	512	510	
3	0	0	0	0	510	510	
4	0	0	0	0	510	508	
5	0	0	0	0	509	510	
6	0	0	0	0	511	508	
7	0	0	0	0	512	509	
8	0	0	0	0	508	508	
9	0	0	0	0	507	509	
10	0	0	0	0	509	511	
11	0	0	0	0	510	511	
12	0	0	0	0	511	511	
13	0	0	0	0	511	510	
14	0	0	0	0	514	510	
15	0	0	0	0	512	510	
0	0	0	0	0	512	509	
1	0	0	0	0	510	510	
2	0	0	0	0	509	511	
3	0	0	0	0	510	512	
4	0	0	0	0	512	511	
5	0	0	0	0	511	508	
6	0	0	0	0	511	510	
7	0	0	0	0	511	510	
8	0	0	0	0	512	509	
9	0	0	0	0	513	511	
10	0	0	0	0	510	513	
11	0	0	0	0	510	511	
12	0	0	0	0	508	513	
13	0	0	0	0	508	511	
14	0	0	0	0	507	509	
15	0	0	0	0	508	511	
0	0	0	0	0	508	512	
1	0	0	0	0	510	512	
2	0	0	0	0	510	512	
3	0	0	0	0	512	509	
4	0	0	0	0	513	509	
5	0	0	0	0	514	510	
6	0	0	0	0	512	510	
7	0	0	0	0	512	511	
8	0	0	0	0	512	510	
9	0	0	0	0	508	511	
10	0	0	0	0	509	510	
11	0	0	0	0	508	510	
12	0	0	0	0	505	510	
13	0	0	0	0	507	511	
14	0	0	0	0	512	510	
15	0	0	0	0	512	511	
0	0	0	0	0	512	508	
1	0	0	0	0	511	508	
2	0	0	0	0	511	510	
3	0	0	0	0	512	511	
4	0	0	0	0	513	511	
5	0	0	0	0	512	509	
6	0	0	0	0	511	510	
7	0	0	0	0	510	512	
8	0	0	0	0	512	510	
9	0	0	0	0	511	510	
10	0	0	0	0	513	509	
11	0	0	0	0	511	509	
12	0	0	0	0	511	511	
13	0	0	0	0	511	511	
14	0	0	0	0	512	512	
15	0	0	0	0	512	510	
0	0	0	0	0	511	511	
1	0	0	0	0	510	511	
2	0	0	0	0	508	510	
3	0	0	0	0	512	510	
4	0	0	0	0	514	509	
5	0	0	0	0	514	509	
6	0	0	0	0	513	510	
7	0	0	0	0	510	510	
8	0	0	0	0	509	508	
9	0	0	0	0	507	508	
10	0	0	0	0	506	509	
11	0	0	0	0	504	510	
12	0	0	0	0	506	510	
13	0	0	0	0	509	511	
14	0	0	0	0	512	508	
15	0	0	0	0	512	508	
0	0	0	0	0	512	512	
1	0	0	0	0	511	509	
2	0	0	0	0	512	510	
3	0	0	0	0	512	510	
4	0	0	0	0	513	510	
5	0	0	0	0	512	509	
6	0	0	0	0	516	508	
7	0	0	0	0	514	510	
8	0	0	0	0	513	511	
9	0	0	0	0	512	510	
10	0	0	0	0	511	509	
11	0	0	0	0	510	510	
12	0	0	0	0	508	512	
13	0	0	0	0	506	511	
14	0	0	0	0	505	512	
15	0	0	0	0	506	512	
0	0	0	0	0	510	509	
1	0	0	0	0	510	511	
2	0	0	0	0	508	509	
3	0	0	0	0	512	511	
4	0	0	0	0	513	512	
5	0	0	0	0	511	511	
6	0	0	0	0	512	510	
7	0	0	0	0	511	510	
8	0	0	0	0	511	511	
9	0	0	0	0	511	510	
10	0	0	0	0	512	512	
11	0	0	0	0	515	511	
12	0	0	0	0	514	511	
13	0	0	0	0	512	512	
14	0	0	0	0	512	508	
15	0	0	0	0	508	508	
0	0	0	0	0	505	509	
1	0	0	0	0	505	507	
2	0	0	0	0	505	509	
3	0	0	0	0	503	514	
4	0	0	0	0	503	513	
5	0	0	0	0	503	510	
6	0	0	0	0	507	511	
7	0	0	0	0	511	510	
8	0	0	0	0	513	509	
9	0	0	0	0	510	509	
10	0	0	0	0	514	511	
11	0	0	0	0	514	508	
12	0	0	0	0	516	508	
13	0	0	0	0	512	511	
14	0	0	0	0	512	511	
15	0	0	0	0	514	513	
0	0	0	0	0	513	509	
1	0	0	0	0	512	511	
2	0	0	0	0	512	511	
3	0	0	0	0	513	510	
4	0	0	0	0	512	510	
5	0	0	0	0	512	510	
6	0	0	0	0	511	511	
7	0	0	0	0	511	511	
8	0	0	0	0	510	510	
9	0	0	0	0	511	508	
10	0	0	0	0	513	509	
11	0	0	0	0	511	508	
12	0	0	0	0	511	510	
13	0	0	0	0	510	508	
14	0	0	0	0	512	508	
15	0	0	0	0	510	510	
0	0	0	0	0	508	510	
1	0	0	0	0	510	511	
2	0	0	0	0	511	510	
3	0	0	0	0	512	512	
4	0	0	0	0	511	513	
5	0	0	0	0	508	512	
6	0	0	0	0	508	511	
7	0	0	0	0	509	511	
8	0	0	0	0	505	511	
9	0	0	0	0	510	512	
10	0	0	0	0	510	508	
11	0	0	0	0	508	511	
12	0	0	0	0	509	512	
13	0	0	0	0	509	510	
14	0	0	0	0	509	511	
15	0	0	0	0	511	509	
0	0	0	0	0	510	510	
1	0	0	0	0	511	511	
2	0	0	0	0	513	510	
3	0	0	0	0	513	513	
4	0	0	0	0	512	512	
5	0	0	0	0	511	510	
6	0	0	0	0	510	510	
7	0	0	0	0	509	511	
8	0	0	0	0	509	509	
9	0	0	0	0	511	509	
10	0	0	0	0	510	510	
11	0	0	0	0	511	510	
12	0	0	0	0	512	510	
13	0	0	0	0	512	510	
14	0	0	0	0	511	511	
15	0	0	0	0	510	511	
0	0	0	0	0	509	509	
1	0	0	0	0	510	510	
2	0	0	0	0	511	510	
3	0	0	0	0	512	508	
4	0	0	0	0	513	510	
5	0	0	0	0	515	510	
6	0	0	0	0	515	510	
7	0	0	0	0	514	510	
8	0	0	0	0	514	511	
9	0	0	0	0	512	510	
10	0	0	0	0	510	509	
11	0	0	0	0	509	509	
12	0	0	0	0	507	511	
13	0	0	0	0	506	511	
14	0	0	0	0	505	512	
15	0	0	0	0	505	511	
0	0	0	0	0	509	509	
1	0	0	0	0	509	509	
2	0	0	0	0	510	509	
3	0	0	0	0	511	508	
4	0	0	0	0	513	509	
5	0	0	0	0	513	509	
6	0	0	0	0	514	512	
7	0	0	0	0	513	514	
8	0	0	0	0	512	512	
9	0	0	0	0	513	511	
10	0	0	0	0	512	509	
11	0	0	0	0	514	511	
12	0	0	0	0	513	511	
13	0	0	0	0	513	512	
14	0	0	0	0	512	511	
15	0	0	0	0	510	512	
0	0	0	0	0	508	513	
1	0	0	0	0	505	511	
2	0	0	0	0	503	512	
3	0	0	0	0	504	512	
4	0	0	0	0	502	510	
5	0	0	0	0	502	510	
6	0	0	0	0	504	512	
7	0	0	0	0	507	510	
8	0	0	0	0	512	511	
9	0	0	0	0	513	510	
10	0	0	0	0	515	510	
11	0	0	0	0	514	514	
12	0	0	0	0	514	513	
13	0	0	0	0	515	514	
14	0	0	0	0	512	513	
15	0	0	0	0	515	512	
0	0	0	0	0	515	510	
1	0	0	0	0	514	510	
2	0	0	0	0	514	509	
3	0	0	0	0	512	508	
4	0	0	0	0	512	508	
5	0	0	0	0	510	505	
6	0	0	0	0	511	507	
7	0	0	0	0	510	505	
8	0	0	0	0	507	506	
9	0	0	0	0	508	504	
10	0	0	0	0	509	505	
11	0	0	0	0	512	504	
12	0	0	0	0	514	502	
13	0	0	0	0	509	503	
14	0	0	0	0	508	506	
15	0	0	0	0	508	505	
0	0	0	0	0	509	506	
1	0	0	0	0	512	508	
2	0	0	0	0	511	508	
3	0	0	0	0	513	507	
4	0	0	0	0	514	510	
5	0	0	0	0	515	510	
6	0	0	0	0	514	513	
7	0	0	0	0	512	515	
8	0	0	0	0	513	513	
9	0	0	0	0	510	513	
10	0	0	0	0	508	514	
11	0	0	0	0	506	515	
12	0	0	0	0	508	514	
13	0	0	0	0	511	512	
14	0	0	0	0	511	511	
15	0	0	0	0	511	511	
0	0	0	0	0	514	512	
1	0	0	0	0	512	513	
2	0	0	0	0	510	508	
3	0	0	0	0	508	511	
4	0	0	0	0	509	512	
5	0	0	0	0	512	512	
6	0	0	0	0	512	512	
7	0	0	0	0	508	511	
8	0	0	0	0	506	513	
9	0	0	0	0	509	512	
10	0	0	0	0	508	512	
11	0	0	0	0	511	509	
12	0	0	0	0	508	510	
13	0	0	0	0	511	512	
14	0	0	0	0	511	511	
15	0	0	0	0	511	507	
0	0	0	0	0	512	508	
1	0	0	0	0	509	510	
2	0	0	0	0	510	511	
3	0	0	0	0	510	509	
4	0	0	0	0	511	510	
5	0	0	0	0	510	511	
6	0	0	0	0	511	510	
7	0	0	0	0	515	510	
8	0	0	0	0	518	509	
9	0	0	0	0	512	508	
10	0	0	0	0	511	510	
11	0	0	0	0	512	512	
12	0	0	0	0	508	511	
13	0	0	0	0	510	513	
14	0	0	0	0	508	510	
15	0	0	0	0	508	512	
0	0	0	0	0	505	511	
1	0	0	0	0	507	509	
2	0	0	0	0	511	508	
3	0	0	0	0	514	506	
4	0	0	0	0	513	511	
5	0	0	0	0	513	511	
6	0	0	0	0	514	513	
7	0	0	0	0	514	512	
8	0	0	0	0	513	507	
9	0	0	0	0	513	509	
10	0	0	0	0	511	511	
11	0	0	0	0	505	512	
12	0	0	0	0	507	511	
13	0	0	0	0	508	507	
14	0	0	0	0	509	511	
15	0	0	0	0	508	509	
0	0	0	0	0	510	510	
1	0	0	0	0	511	510	
2	0	0	0	0	511	512	
3	0	0	0	0	511	511	
4	0	0	0	0	512	510	
5	0	0	0	0	512	513	
6	0	0	0	0	511	512	
7	0	0	0	0	511	510	
8	0	0	0	0	510	510	
9	0	0	0	0	511	511	
10	0	0	0	0	512	510	
11	0	0	0	0	511	509	
12	0	0	0	0	511	511	
13	0	0	0	0	512	510	
14	0	0	0	0	513	509	
15	0	0	0	0	511	512	
0	0	0	0	0	512	507	
1	0	0	0	0	510	510	
2	0	0	0	0	512	509	
3	0	0	0	0	510	509	
4	0	0	0	0	511	511	
5	0	0	0	0	510	510	
6	0	0	0	0	508	511	
7	0	0	0	0	507	511	
8	0	0	0	0	508	510	
9	0	0	0	0	511	511	
10	0	0	0	0	511	510	
11	0	0	0	0	512	510	
12	0	0	0	0	512	512	
13	0	0	0	0	514	510	
14	0	0	0	0	518	510	
15	0	0	0	0	514	510	
0	0	0	0	0	513	511	
1	0	0	0	0	511	510	
2	0	0	0	0	506	512	
3	0	0	0	0	508	511	
4	0	0	0	0	506	509	
5	0	0	0	0	506	512	
6	0	0	0	0	504	511	
7	0	0	0	0	505	510	
8	0	0	0	0	508	510	
9	0	0	0	0	510	512	
10	0	0	0	0	512	510	
11	0	0	0	0	513	509	
12	0	0	0	0	512	510	
13	0	0	0	0	512	512	
14	0	0	0	0	512	510	
15	0	0	0	0	514	508	
0	0	0	0	0	512	508	
1	0	0	0	0	511	509	
2	0	0	0	0	510	510	
3	0	0	0	0	511	510	
4	0	0	0	0	510	511	
5	0	0	0	0	511	510	
6	0	0	0	0	509	510	
7	0	0	0	0	509	513	
8	0	0	0	0	510	514	
9	0	0	0	0	510	512	
10	0	0	0	0	511	511	
11	0	0	0	0	509	510	
12	0	0	0	0	510	509	
13	0	0	0	0	513	512	
14	0	0	0	0	512	510	
15	0	0	0	0	513	510	
0	0	0	0	0	512	509	
1	0	0	0	0	512	513	
2	0	0	0	0	512	510	
3	0	0	0	0	513	508	
4	0	0	0	0	513	508	
5	0	0	0	0	515	510	
6	0	0	0	0	513	510	
7	0	0	0	0	513	510	
8	0	0	0	0	509	512	
9	0	0	0	0	510	513	
10	0	0	0	0	510	511	
11	0	0	0	0	510	511	
12	0	0	0	0	508	510	
13	0	0	0	0	508	511	
14	0	0	0	0	512	510	
15	0	0	0	0	512	509	
0	0	0	0	0	513	510	
1	0	0	0	0	511	508	
2	0	0	0	0	508	508	
3	0	0	0	0	506	509	
4	0	0	0	0	504	512	
5	0	0	0	0	504	511	
6	0	0	0	0	507	512	
7	0	0	0	0	505	511	
8	0	0	0	0	508	511	
9	0	0	0	0	512	511	
10	0	0	0	0	511	510	
11	0	0	0	0	513	512	
12	0	0	0	0	514	509	
13	0	0	0	0	512	508	
14	0	0	0	0	513	508	
15	0	0	0	0	513	511	
0	0	0	0	0	512	510	
1	0	0	0	0	511	508	
2	0	0	0	0	511	510	
3	0	0	0	0	513	509	
4	0	0	0	0	513	511	
5	0	0	0	0	512	510	
6	0	0	0	0	510	510	
7	0	0	0	0	510	510	
8	0	0	0	0	510	511	
9	0	0	0	0	509	510	
10	0	0	0	0	510	508	
11	0	0	0	0	510	509	
12	0	0	0	0	511	510	
13	0	0	0	0	510	511	
14	0	0	0	0	512	508	
15	0	0	0	0	512	509	
0	0	0	0	0	512	511	
1	0	0	0	0	510	508	
2	0	0	0	0	511	509	
3	0	0	0	0	511	512	
4	0	0	0	0	511	512	
5	0	0	0	0	510	512	
6	0	0	0	0	510	510	
7	0	0	0	0	511	509	
8	0	0	0	0	509	510	
9	0	0	0	0	511	511	
10	0	0	0	0	514	510	
11	0	0	0	0	510	511	
12	0	0	0	0	511	509	
13	0	0	0	0	513	508	
14	0	0	0	0	511	509	
15	0	0	0	0	508	510	
0	0	0	0	0	509	511	
1	0	0	0	0	510	510	
2	0	0	0	0	514	510	
3	0	0	0	0	511	511	
4	0	0	0	0	510	511	
5	0	0	0	0	509	512	
6	0	0	0	0	511	512	
7	0	0	0	0	511	510	
8	0	0	0	0	510	511	
9	0	0	0	0	513	511	
10	0	0	0	0	513	510	
11	0	0	0	0	514	510	
12	0	0	0	0	515	509	
13	0	0	0	0	513	513	
14	0	0	0	0	515	513	
15	0	0	0	0	514	510	
0	0	0	0	0	511	510	
1	0	0	0	0	510	510	
2	0	0	0	0	508	510	
3	0	0	0	0	504	510	
4	0	0	0	0	503	510	
5	0	0	0	0	509	508	
6	0	0	0	0	509	508	
7	0	0	0	0	505	511	
8	0	0	0	0	503	511	
9	0	0	0	0	505	511	
10	0	0	0	0	505	511	
11	0	0	0	0	508	513	
12	0	0	0	0	508	510	
13	0	0	0	0	508	510	
14	0	0	0	0	505	510	
15	0	0	0	0	508	510	
0	0	0	0	0	511	514	
1	0	0	0	0	513	509	
2	0	0	0	0	512	511	
3	0	0	0	0	518	510	
4	0	0	0	0	518	510	
5	0	0	0	0	519	509	
6	0	0	0	0	517	511	
7	0	0	0	0	516	509	
8	0	0	0	0	513	510	
9	0	0	0	0	511	509	
10	0	0	0	0	511	509	
11	0	0	0	0	506	509	
12	0	0	0	0	505	511	
13	0	0	0	0	504	510	
14	0	0	0	0	505	510	
15	0	0	0	0	509	510	
0	0	0	0	0	511	511	
1	0	0	0	0	513	509	
2	0	0	0	0	514	509	
3	0	0	0	0	514	509	
4	0	0	0	0	515	511	
5	0	0	0	0	515	511	
6	0	0	0	0	515	510	
7	0	0	0	0	513	508	
8	0	0	0	0	508	512	
9	0	0	0	0	508	512	
10	0	0	0	0	511	513	
11	0	0	0	0	511	509	
12	0	0	0	0	508	508	
13	0	0	0	0	508	511	
14	0	0	0	0	510	511	
15	0	0	0	0	515	508	
0	0	0	0	0	512	511	
1	0	0	0	0	513	512	
2	0	0	0	0	512	509	
3	0	0	0	0	513	510	
4	0	0	0	0	512	512	
5	0	0	0	0	509	511	
6	0	0	0	0	510	513	
7	0	0	0	0	506	509	
8	0	0	0	0	506	509	
9	0	0	0	0	506	511	
10	0	0	0	0	506	511	
11	0	0	0	0	509	510	
12	0	0	0	0	510	510	
13	0	0	0	0	511	511	
14	0	0	0	0	513	510	
15	0	0	0	0	511	513	
0	0	0	0	0	512	511	
1	0	0	0	0	510	508	
2	0	0	0	0	511	511	
3	0	0	0	0	511	510	
4	0	0	0	0	515	512	
5	0	0	0	0	515	511	
6	0	0	0	0	512	509	
7	0	0	0	0	513	508	
8	0	0	0	0	512	510	
9	0	0	0	0	513	509	
10	0	0	0	0	509	511	
11	0	0	0	0	509	509	
12	0	0	0	0	508	510	
13	0	0	0	0	505	508	
14	0	0	0	0	508	509	
15	0	0	0	0	507	508	
0	0	0	0	0	506	513	
1	0	0	0	0	509	508	
2	0	0	0	0	507	510	
3	0	0	0	0	507	515	
4	0	0	0	0	507	511	
5	0	0	0	0	512	510	
6	0	0	0	0	512	510	
7	0	0	0	0	515	508	
8	0	0	0	0	511	511	
9	0	0	0	0	511	512	
10	0	0	0	0	515	511	
11	0	0	0	0	515	510	
12	0	0	0	0	512	512	
13	0	0	0	0	511	512	
14	0	0	0	0	511	508	
15	0	0	0	0	510	507	
0	0	0	0	0	513	511	
1	0	0	0	0	509	510	
2	0	0	0	0	508	510	
3	0	0	0	0	509	509	
4	0	0	0	0	507	510	
5	0	0	0	0	506	511	
6	0	0	0	0	509	510	
7	0	0	0	0	511	511	
8	0	0	0	0	510	510	
9	0	0	0	0	514	508	
10	0	0	0	0	515	510	
11	0	0	0	0	519	511	
12	0	0	0	0	515	511	
13	0	0	0	0	511	511	
14	0	0	0	0	512	510	
15	0	0	0	0	510	510	
0	0	0	0	0	507	510	
1	0	0	0	0	504	512	
2	0	0	0	0	508	513	
3	0	0	0	0	503	510	
4	0	0	0	0	507	513	
5	0	0	0	0	510	513	
6	0	0	0	0	513	511	
7	0	0	0	0	519	509	
8	0	0	0	0	523	508	
9	0	0	0	0	520	508	
10	0	0	0	0	515	511	
11	0	0	0	0	512	510	
12	0	0	0	0	510	511	
13	0	0	0	0	508	512	
14	0	0	0	0	500	512	
15	0	0	0	0	497	514	
0	0	0	0	0	498	515	
1	0	0	0	0	501	511	
2	0	0	0	0	504	512	
3	0	0	0	0	508	510	
4	0	0	0	0	509	508	
5	0	0	0	0	516	511	
6	0	0	0	0	521	510	
7	0	0	0	0	520	504	
8	0	0	0	0	515	507	
9	0	0	0	0	515	509	
10	0	0	0	0	507	511	
11	0	0	0	0	507	508	
12	0	0	0	0	508	510	
13	0	0	0	0	508	510	
14	0	0	0	0	511	510	
15	0	0	0	0	513	508	
0	0	0	0	0	513	511	
1	0	0	0	0	511	510	
2	0	0	0	0	510	509	
3	0	0	0	0	510	511	
4	0	0	0	0	511	510	
5	0	0	0	0	508	510	
6	0	0	0	0	506	513	
7	0	0	0	0	503	512	
8	0	0	0	0	502	513	
9	0	0	0	0	507	511	
10	0	0	0	0	508	511	
11	0	0	0	0	512	509	
12	0	0	0	0	515	509	
13	0	0	0	0	513	507	
14	0	0	0	0	516	509	
15	0	0	0	0	515	512	
0	0	0	0	0	511	511	
1	0	0	0	0	516	511	
2	0	0	0	0	517	509	
3	0	0	0	0	516	508	
4	0	0	0	0	516	512	
5	0	0	0	0	513	509	
6	0	0	0	0	512	511	
7	0	0	0	0	511	512	
8	0	0	0	0	509	514	
9	0	0	0	0	505	513	
10	0	0	0	0	505	511	
11	0	0	0	0	504	511	
12	0	0	0	0	504	511	
13	0	0	0	0	505	511	
14	0	0	0	0	508	507	
15	0	0	0	0	509	507	
0	0	0	0	0	511	507	
1	0	0	0	0	511	504	
2	0	0	0	0	511	505	
3	0	0	0	0	512	504	
4	0	0	0	0	514	506	
5	0	0	0	0	515	507	
6	0	0	0	0	519	510	
7	0	0	0	0	515	507	
8	0	0	0	0	515	507	
9	0	0	0	0	511	508	
10	0	0	0	0	510	512	
11	0	0	0	0	512	510	
12	0	0	0	0	511	513	
13	0	0	0	0	506	515	
14	0	0	0	0	504	515	
15	0	0	0	0	509	516	
0	0	0	0	0	511	514	
1	0	0	0	0	511	511	
2	0	0	0	0	512	511	
3	0	0	0	0	512	514	
4	0	0	0	0	517	511	
5	0	0	0	0	521	509	
6	0	0	0	0	520	512	
7	0	0	0	0	507	509	
8	0	0	0	0	506	511	
9	0	0	0	0	504	510	
10	0	0	0	0	499	510	
11	0	0	0	0	500	508	
12	0	0	0	0	501	513	
13	0	0	0	0	502	513	
14	0	0	0	0	503	511	
15	0	0	0	0	507	509	
0	0	0	0	0	512	508	
1	0	0	0	0	514	508	
2	0	0	0	0	519	508	
3	0	0	0	0	514	508	
4	0	0	0	0	515	506	
5	0	0	0	0	513	509	
6	0	0	0	0	516	511	
7	0	0	0	0	516	512	
8	0	0	0	0	516	511	
9	0	0	0	0	513	512	
10	0	0	0	0	512	510	
11	0	0	0	0	511	511	
12	0	0	0	0	509	509	
13	0	0	0	0	509	508	
14	0	0	0	0	511	510	
15	0	0	0	0	511	510	
0	0	0	0	0	510	513	
1	0	0	0	0	512	510	
2	0	0	0	0	510	510	
3	0	0	0	0	507	510	
4	0	0	0	0	510	509	
5	0	0	0	0	510	510	
6	0	0	0	0	511	511	
7	0	0	0	0	511	509	
8	0	0	0	0	514	506	
9	0	0	0	0	511	509	
10	0	0	0	0	511	512	
11	0	0	0	0	510	510	
12	0	0	0	0	511	511	
13	0	0	0	0	511	510	
14	0	0	0	0	508	510	
15	0	0	0	0	508	511	
0	0	0	0	0	509	513	
1	0	0	0	0	515	510	
2	0	0	0	0	508	513	
3	0	0	0	0	512	507	
4	0	0	0	0	513	509	
5	0	0	0	0	512	514	
6	0	0	0	0	507	512	
7	0	0	0	0	510	508	
8	0	0	0	0	510	507	
9	0	0	0	0	513	505	
10	0	0	0	0	511	504	
11	0	0	0	0	510	507	
12	0	0	0	0	508	512	
13	0	0	0	0	510	508	
14	0	0	0	0	510	511	
15	0	0	0	0	509	509	
0	0	0	0	0	508	515	
1	0	0	0	0	507	515	
2	0	0	0	0	508	513	
3	0	0	0	0	511	511	
4	0	0	0	0	511	512	
5	0	0	0	0	511	510	
6	0	0	0	0	509	511	
7	0	0	0	0	512	510	
8	0	0	0	0	510	510	
9	0	0	0	0	505	515	
10	0	0	0	0	512	508	
11	0	0	0	0	516	512	
12	0	0	0	0	513	511	
13	0	0	0	0	512	508	
14	0	0	0	0	512	508	
15	0	0	0	0	515	510	
0	0	0	0	0	513	510	
1	0	0	0	0	511	510	
2	0	0	0	0	513	506	
3	0	0	0	0	508	511	
4	0	0	0	0	506	515	
5	0	0	0	0	511	509	
6	0	0	0	0	510	508	
7	0	0	0	0	511	508	
8	0	0	0	0	513	509	
9	0	0	0	0	514	510	
10	0	0	0	0	511	511	
11	0	0	0	0	508	511	
12	0	0	0	0	511	509	
13	0	0	0	0	516	510	
14	0	0	0	0	515	511	
15	0	0	0	0	516	505	
0	0	0	0	0	510	511	
1	0	0	0	0	511	511	
2	0	0	0	0	505	510	
3	0	0	0	0	505	510	
4	0	0	0	0	508	512	
5	0	0	0	0	507	512	
6	0	0	0	0	507	510	
7	0	0	0	0	510	514	
8	0	0	0	0	510	515	
9	0	0	0	0	510	511	
10	0	0	0	0	511	509	
11	0	0	0	0	512	510	
12	0	0	0	0	511	511	
13	0	0	0	0	513	504	
14	0	0	0	0	511	507	
15	0	0	0	0	508	509	
0	0	0	0	0	510	511	
1	0	0	0	0	507	511	
2	0	0	0	0	507	504	
3	0	0	0	0	508	508	
4	0	0	0	0	508	508	
5	0	0	0	0	505	513	
6	0	0	0	0	516	510	
7	0	0	0	0	516	511	
8	0	0	0	0	518	511	
9	0	0	0	0	514	514	
10	0	0	0	0	515	512	
11	0	0	0	0	512	514	
12	0	0	0	0	513	511	
13	0	0	0	0	515	511	
14	0	0	0	0	506	513	
15	0	0	0	0	510	508	
0	0	0	0	0	512	505	
1	0	0	0	0	512	504	
2	0	0	0	0	508	507	
3	0	0	0	0	509	509	
4	0	0	0	0	508	503	
5	0	0	0	0	508	507	
6	0	0	0	0	512	509	
7	0	0	0	0	509	512	
8	0	0	0	0	508	514	
9	0	0	0	0	509	509	
10	0	0	0	0	514	509	
11	0	0	0	0	512	511	
12	0	0	0	0	513	513	
13	0	0	0	0	513	509	
14	0	0	0	0	512	507	
15	0	0	0	0	511	514	
0	0	0	0	0	506	512	
1	0	0	0	0	508	511	
2	0	0	0	0	507	512	
3	0	0	0	0	511	514	
4	0	0	0	0	510	517	
5	0	0	0	0	508	514	
6	0	0	0	0	509	512	
7	0	0	0	0	512	511	
8	0	0	0	0	511	512	
9	0	0	0	0	512	505	
10	0	0	0	0	510	512	
11	0	0	0	0	512	510	
12	0	0	0	0	514	509	
13	0	0	0	0	511	510	
14	0	0	0	0	507	511	
15	0	0	0	0	510	509	
0	0	0	0	0	509	510	
1	0	0	0	0	515	511	
2	0	0	0	0	510	512	
3	0	0	0	0	510	511	
4	0	0	0	0	511	509	
5	0	0	0	0	511	509	
6	0	0	0	0	510	507	
7	0	0	0	0	513	508	
8	0	0	0	0	512	508	
9	0	0	0	0	511	505	
10	0	0	0	0	510	505	
11	0	0	0	0	510	505	
12	0	0	0	0	509	506	
13	0	0	0	0	511	507	
14	0	0	0	0	510	509	
15	0	0	0	0	511	507	
0	0	0	0	0	512	508	
1	0	0	0	0	511	513	
2	0	0	0	0	510	512	
3	0	0	0	0	511	512	
4	0	0	0	0	508	515	
5	0	0	0	0	510	511	
6	0	0	0	0	512	509	
7	0	0	0	0	513	508	
8	0	0	0	0	512	515	
9	0	0	0	0	509	517	
10	0	0	0	0	509	513	
11	0	0	0	0	511	513	
12	0	0	0	0	511	509	
13	0	0	0	0	512	511	
14	0	0	0	0	510	512	
15	0	0	0	0	513	507	
0	0	0	0	0	511	510	
1	0	0	0	0	511	509	
2	0	0	0	0	513	510	
3	0	0	0	0	513	506	
4	0	0	0	0	513	507	
5	0	0	0	0	510	513	
6	0	0	0	0	515	510	
7	0	0	0	0	512	512	
8	0	0	0	0	508	513	
9	0	0	0	0	511	515	
10	0	0	0	0	516	512	
11	0	0	0	0	510	513	
12	0	0	0	0	511	513	
13	0	0	0	0	508	509	
14	0	0	0	0	510	515	
15	0	0	0	0	515	517	
0	0	0	0	0	510	511	
1	0	0	0	0	508	512	
2	0	0	0	0	504	509	
3	0	0	0	0	506	511	
4	0	0	0	0	507	514	
5	0	0	0	0	512	512	
6	0	0	0	0	512	507	
7	0	0	0	0	511	508	
8	0	0	0	0	510	511	
9	0	0	0	0	514	513	
10	0	0	0	0	511	508	
11	0	0	0	0	510	514	
12	0	0	0	0	510	512	
13	0	0	0	0	507	517	
14	0	0	0	0	515	516	
15	0	0	0	0	512	512	
0	0	0	0	0	513	508	
1	0	0	0	0	513	512	
2	0	0	0	0	513	509	
3	0	0	0	0	507	503	
4	0	0	0	0	505	504	
5	0	0	0	0	507	503	
6	0	0	0	0	507	507	
7	0	0	0	0	506	505	
8	0	0	0	0	509	499	
9	0	0	0	0	510	503	
10	0	0	0	0	511	502	
11	0	0	0	0	516	506	
12	0	0	0	0	515	508	
13	0	0	0	0	513	499	
14	0	0	0	0	512	504	
15	0	0	0	0	512	502	
0	0	0	0	0	510	512	
1	0	0	0	0	512	525	
2	0	0	0	0	509	520	
3	0	0	0	0	511	510	
4	0	0	0	0	514	512	
5	0	0	0	0	512	517	
6	0	0	0	0	520	515	
7	0	0	0	0	512	518	
8	0	0	0	0	509	507	
9	0	0	0	0	512	499	
10	0	0	0	0	511	500	
11	0	0	0	0	511	496	
12	0	0	0	0	511	501	
13	0	0	0	0	507	509	
14	0	0	0	0	504	504	
15	0	0	0	0	508	511	
0	0	0	0	0	510	516	
1	0	0	0	0	508	518	
2	0	0	0	0	509	508	
3	0	0	0	0	510	512	
4	0	0	0	0	511	514	
5	0	0	0	0	513	515	
6	0	0	0	0	516	512	
7	0	0	0	0	512	514	
8	0	0	0	0	511	518	
9	0	0	0	0	512	515	
10	0	0	0	0	512	516	
11	0	0	0	0	505	518	
12	0	0	0	0	509	509	
13	0	0	0	0	510	509	
14	0	0	0	0	511	509	
15	0	0	0	0	513	508	
0	0	0	0	0	511	510	
1	0	0	0	0	511	508	
2	0	0	0	0	510	512	
3	0	0	0	0	510	508	
4	0	0	0	0	512	510	
5	0	0	0	0	511	513	
6	0	0	0	0	512	512	
7	0	0	0	0	509	512	
8	0	0	0	0	510	509	
9	0	0	0	0	511	512	
10	0	0	0	0	508	509	
11	0	0	0	0	511	513	
12	0	0	0	0	512	512	
13	0	0	0	0	517	511	
14	0	0	0	0	513	509	
15	0	0	0	0	508	508	
0	0	0	0	0	512	507	
1	0	0	0	0	511	509	
2	0	0	0	0	512	507	
3	0	0	0	0	509	508	
4	0	0	0	0	506	510	
5	0	0	0	0	506	512	
6	0	0	0	0	506	514	
7	0	0	0	0	504	515	
8	0	0	0	0	508	512	
9	0	0	0	0	509	511	
10	0	0	0	0	508	512	
11	0	0	0	0	511	511	
12	0	0	0	0	510	510	
13	0	0	0	0	511	505	
14	0	0	0	0	511	508	
15	0	0	0	0	508	509	
0	0	0	0	0	509	509	
1	0	0	0	0	511	510	
2	0	0	0	0	510	509	
3	0	0	0	0	510	509	
4	0	0	0	0	511	515	
5	0	0	0	0	512	512	
6	0	0	0	0	514	508	
7	0	0	0	0	511	509	
8	0	0	0	0	514	511	
9	0	0	0	0	511	508	
10	0	0	0	0	509	511	
11	0	0	0	0	512	509	
12	0	0	0	0	511	511	
13	0	0	0	0	515	510	
14	0	0	0	0	515	509	
15	0	0	0	0	513	511	
0	0	0	0	0	511	509	
1	0	0	0	0	512	508	
2	0	0	0	0	509	509	
3	0	0	0	0	510	509	
4	0	0	0	0	512	510	
5	0	0	0	0	511	510	
6	0	0	0	0	511	510	
7	0	0	0	0	512	511	
8	0	0	0	0	510	513	
9	0	0	0	0	511	508	
10	0	0	0	0	510	507	
11	0	0	0	0	512	508	
12	0	0	0	0	513	512	
13	0	0	0	0	509	512	
14	0	0	0	0	509	511	
15	0	0	0	0	509	511	
0	0	0	0	0	510	511	
1	0	0	0	0	510	511	
2	0	0	0	0	511	512	
3	0	0	0	0	512	512	
4	0	0	0	0	512	512	
5	0	0	0	0	512	511	
6	0	0	0	0	511	513	
7	0	0	0	0	511	509	
8	0	0	0	0	508	510	
9	0	0	0	0	507	513	
10	0	0	0	0	511	508	
11	0	0	0	0	510	509	
12	0	0	0	0	513	507	
13	0	0	0	0	512	510	
14	0	0	0	0	510	511	
15	0	0	0	0	511	513	
0	0	0	0	0	512	511	
1	0	0	0	0	513	515	
2	0	0	0	0	511	512	
3	0	0	0	0	512	511	
4	0	0	0	0	513	508	
5	0	0	0	0	516	508	
6	0	0	0	0	517	513	
7	0	0	0	0	513	515	
8	0	0	0	0	508	513	
9	0	0	0	0	509	514	
10	0	0	0	0	508	511	
11	0	0	0	0	507	513	
12	0	0	0	0	505	505	
13	0	0	0	0	502	510	
14	0	0	0	0	499	512	
15	0	0	0	0	501	513	
0	0	0	0	0	504	511	
1	0	0	0	0	512	511	
2	0	0	0	0	512	509	
3	0	0	0	0	513	509	
4	0	0	0	0	511	510	
5	0	0	0	0	512	508	
6	0	0	0	0	515	511	
7	0	0	0	0	510	510	
8	0	0	0	0	510	508	
9	0	0	0	0	510	509	
10	0	0	0	0	512	510	
11	0	0	0	0	511	511	
12	0	0	0	0	512	510	
13	0	0	0	0	515	510	
14	0	0	0	0	516	508	
15	0	0	0	0	515	504	
0	0	0	0	0	517	509	
1	0	0	0	0	511	513	
2	0	0	0	0	510	515	
3	0	0	0	0	508	511	
4	0	0	0	0	504	514	
5	0	0	0	0	507	515	
6	0	0	0	0	509	513	
7	0	0	0	0	511	509	
8	0	0	0	0	513	509	
9	0	0	0	0	512	511	
10	0	0	0	0	511	515	
11	0	0	0	0	511	511	
12	0	0	0	0	512	510	
13	0	0	0	0	511	511	
14	0	0	0	0	508	511	
15	0	0	0	0	511	511	
0	0	0	0	0	512	510	
1	0	0	0	0	514	508	
2	0	0	0	0	508	507	
3	0	0	0	0	507	510	
4	0	0	0	0	505	508	
5	0	0	0	0	509	509	
6	0	0	0	0	512	508	
7	0	0	0	0	513	509	
8	0	0	0	0	512	510	
9	0	0	0	0	515	511	
10	0	0	0	0	513	513	
11	0	0	0	0	510	508	
12	0	0	0	0	511	508	
13	0	0	0	0	509	507	
14	0	0	0	0	510	510	
15	0	0	0	0	510	510	
0	0	0	0	0	511	510	
1	0	0	0	0	512	509	
2	0	0	0	0	511	508	
3	0	0	0	0	513	512	
4	0	0	0	0	513	511	
5	0	0	0	0	514	507	
6	0	0	0	0	511	514	
7	0	0	0	0	513	515	
8	0	0	0	0	511	516	
9	0	0	0	0	510	516	
10	0	0	0	0	512	510	
11	0	0	0	0	511	510	
12	0	0	0	0	510	505	
13	0	0	0	0	512	506	
14	0	0	0	0	509	509	
15	0	0	0	0	511	507	
0	0	0	0	0	510	512	
1	0	0	0	0	508	513	
2	0	0	0	0	510	514	
3	0	0	0	0	510	513	
4	0	0	0	0	507	511	
5	0	0	0	0	508	507	
6	0	0	0	0	509	510	
7	0	0	0	0	510	510	
8	0	0	0	0	511	511	
9	0	0	0	0	511	512	
10	0	0	0	0	510	509	
11	0	0	0	0	513	508	
12	0	0	0	0	511	510	
13	0	0	0	0	510	509	
14	0	0	0	0	511	511	
15	0	0	0	0	513	512	
0	0	0	0	0	511	512	
1	0	0	0	0	513	509	
2	0	0	0	0	511	511	
3	0	0	0	0	514	510	
4	0	0	0	0	513	508	
5	0	0	0	0	511	508	
6	0	0	0	0	507	509	
7	0	0	0	0	510	512	
8	0	0	0	0	511	513	
9	0	0	0	0	510	513	
10	0	0	0	0	509	511	
11	0	0	0	0	509	510	
12	0	0	0	0	509	514	
13	0	0	0	0	511	515	
14	0	0	0	0	509	515	
15	0	0	0	0	512	513	
0	0	0	0	0	510	510	
1	0	0	0	0	509	507	
2	0	0	0	0	512	504	
3	0	0	0	0	513	503	
4	0	0	0	0	513	505	
5	0	0	0	0	513	504	
6	0	0	0	0	511	507	
7	0	0	0	0	512	504	
8	0	0	0	0	510	506	
9	0	0	0	0	509	507	
10	0	0	0	0	508	511	
11	0	0	0	0	511	511	
12	0	0	0	0	511	513	
13	0	0	0	0	511	511	
14	0	0	0	0	513	508	
15	0	0	0	0	515	510	
0	0	0	0	0	514	513	
1	0	0	0	0	515	515	
2	0	0	0	0	512	513	
3	0	0	0	0	507	512	
4	0	0	0	0	510	512	
5	0	0	0	0	508	512	
6	0	0	0	0	509	511	
7	0	0	0	0	510	509	
8	0	0	0	0	511	510	
9	0	0	0	0	507	508	
10	0	0	0	0	509	511	
11	0	0	0	0	510	510	
12	0	0	0	0	508	506	
13	0	0	0	0	510	510	
14	0	0	0	0	507	513	
15	0	0	0	0	506	515	
0	0	0	0	0	508	511	
1	0	0	0	0	507	508	
2	0	0	0	0	512	508	
3	0	0	0	0	511	510	
4	0	0	0	0	512	512	
5	0	0	0	0	516	511	
6	0	0	0	0	512	510	
7	0	0	0	0	513	509	
8	0	0	0	0	511	513	
9	0	0	0	0	512	515	
10	0	0	0	0	515	511	
11	0	0	0	0	512	515	
12	0	0	0	0	515	513	
13	0	0	0	0	510	511	
14	0	0	0	0	512	509	
15	0	0	0	0	511	509	
0	0	0	0	0	511	508	
1	0	0	0	0	507	510	
2	0	0	0	0	507	508	
3	0	0	0	0	510	508	
4	0	0	0	0	510	507	
5	0	0	0	0	511	511	
6	0	0	0	0	510	511	
7	0	0	0	0	508	512	
8	0	0	0	0	510	513	
9	0	0	0	0	513	510	
10	0	0	0	0	513	511	
11	0	0	0	0	513	510	
12	0	0	0	0	512	509	
13	0	0	0	0	510	510	
14	0	0	0	0	510	507	
15	0	0	0	0	515	506	
0	0	0	0	0	515	506	
1	0	0	0	0	520	509	
2	0	0	0	0	517	511	
3	0	0	0	0	519	510	
4	0	0	0	0	515	509	
5	0	0	0	0	509	511	
6	0	0	0	0	503	511	
7	0	0	0	0	499	513	
8	0	0	0	0	495	513	
9	0	0	0	0	497	511	
10	0	0	0	0	497	511	
11	0	0	0	0	501	511	
12	0	0	0	0	505	510	
13	0	0	0	0	508	512	
14	0	0	0	0	512	510	
15	0	0	0	0	515	510	
0	0	0	0	0	514	508	
1	0	0	0	0	518	508	
2	0	0	0	0	519	511	
3	0	0	0	0	515	508	
4	0	0	0	0	514	509	
5	0	0	0	0	519	510	
6	0	0	0	0	515	511	
7	0	0	0	0	516	507	
8	0	0	0	0	511	511	
9	0	0	0	0	509	512	
10	0	0	0	0	508	511	
11	0	0	0	0	502	511	
12	0	0	0	0	504	511	
13	0	0	0	0	507	511	
14	0	0	0	0	510	510	
15	0	0	0	0	512	509	
0	0	0	0	0	511	511	
1	0	0	0	0	513	513	
2	0	0	0	0	513	512	
3	0	0	0	0	514	508	
4	0	0	0	0	513	509	
5	0	0	0	0	514	509	
6	0	0	0	0	512	512	
7	0	0	0	0	511	513	
8	0	0	0	0	510	510	
9	0	0	0	0	512	509	
10	0	0	0	0	514	510	
11	0	0	0	0	516	510	
12	0	0	0	0	514	513	
13	0	0	0	0	511	510	
14	0	0	0	0	507	512	
15	0	0	0	0	504	509	
0	0	0	0	0	507	511	
1	0	0	0	0	508	510	
2	0	0	0	0	509	512	
3	0	0	0	0	508	511	
4	0	0	0	0	507	511	
5	0	0	0	0	511	509	
6	0	0	0	0	514	508	
7	0	0	0	0	514	511	
8	0	0	0	0	513	511	
9	0	0	0	0	513	510	
10	0	0	0	0	511	509	
11	0	0	0	0	508	508	
12	0	0	0	0	510	511	
13	0	0	0	0	511	510	
14	0	0	0	0	512	509	
15	0	0	0	0	511	510	
0	0	0	0	0	509	512	
1	0	0	0	0	507	512	
2	0	0	0	0	510	513	
3	0	0	0	0	509	513	
4	0	0	0	0	509	512	
5	0	0	0	0	512	511	
6	0	0	0	0	515	509	
7	0	0	0	0	515	509	
8	0	0	0	0	512	508	
9	0	0	0	0	513	506	
10	0	0	0	0	511	510	
11	0	0	0	0	511	511	
12	0	0	0	0	511	511	
13	0	0	0	0	509	512	
14	0	0	0	0	508	510	
15	0	0	0	0	512	510	
0	0	0	0	0	511	512	
1	0	0	0	0	510	510	
2	0	0	0	0	508	509	
3	0	0	0	0	510	508	
4	0	0	0	0	508	511	
5	0	0	0	0	505	510	
6	0	0	0	0	506	508	
7	0	0	0	0	507	509	
8	0	0	0	0	508	510	
9	0	0	0	0	508	511	
10	0	0	0	0	513	509	
11	0	0	0	0	516	509	
12	0	0	0	0	519	508	
13	0	0	0	0	519	511	
14	0	0	0	0	515	512	
15	0	0	0	0	514	513	
0	0	0	0	0	516	513	
1	0	0	0	0	513	512	
2	0	0	0	0	515	512	
3	0	0	0	0	507	514	
4	0	0	0	0	506	509	
5	0	0	0	0	506	513	
6	0	0	0	0	505	509	
7	0	0	0	0	504	511	
8	0	0	0	0	506	511	
9	0	0	0	0	504	513	
10	0	0	0	0	505	511	
11	0	0	0	0	509	511	
12	0	0	0	0	510	512	
13	0	0	0	0	513	510	
14	0	0	0	0	513	509	
15	0	0	0	0	510	511	
0	0	0	0	0	509	510	
1	0	0	0	0	508	508	
2	0	0	0	0	510	510	
3	0	0	0	0	508	513	
4	0	0	0	0	509	512	
5	0	0	0	0	511	511	
6	0	0	0	0	511	509	
7	0	0	0	0	511	507	
8	0	0	0	0	512	507	
9	0	0	0	0	514	508	
10	0	0	0	0	512	510	
11	0	0	0	0	515	511	
12	0	0	0	0	516	511	
13	0	0	0	0	517	511	
14	0	0	0	0	518	510	
15	0	0	0	0	515	509	
0	0	0	0	0	513	510	
1	0	0	0	0	515	509	
2	0	0	0	0	513	512	
3	0	0	0	0	511	513	
4	0	0	0	0	509	511	
5	0	0	0	0	505	512	
6	0	0	0	0	508	513	
7	0	0	0	0	505	511	
8	0	0	0	0	504	510	
9	0	0	0	0	504	512	
10	0	0	0	0	505	509	
11	0	0	0	0	509	508	
12	0	0	0	0	511	510	
13	0	0	0	0	512	511	
14	0	0	0	0	511	510	
15	0	0	0	0	510	509	
0	0	0	0	0	512	508	
1	0	0	0	0	508	511	
2	0	0	0	0	509	513	
3	0	0	0	0	512	511	
4	0	0	0	0	519	508	
5	0	0	0	0	519	509	
6	0	0	0	0	516	508	
7	0	0	0	0	513	510	
8	0	0	0	0	511	510	
9	0	0	0	0	510	512	
10	0	0	0	0	511	511	
11	0	0	0	0	511	510	
12	0	0	0	0	507	511	
13	0	0	0	0	504	513	
14	0	0	0	0	503	511	
15	0	0	0	0	510	510	
0	0	0	0	0	511	511	
1	0	0	0	0	511	511	
2	0	0	0	0	513	511	
3	0	0	0	0	513	510	
4	0	0	0	0	514	510	
5	0	0	0	0	515	509	
6	0	0	0	0	511	508	
7	0	0	0	0	510	510	
8	0	0	0	0	508	511	
9	0	0	0	0	510	508	
10	0	0	0	0	508	507	
11	0	0	0	0	508	510	
12	0	0	0	0	508	510	
13	0	0	0	0	509	508	
14	0	0	0	0	511	509	
15	0	0	0	0	513	508	
0	0	0	0	0	511	509	
1	0	0	0	0	509	512	
2	0	0	0	0	506	512	
3	0	0	0	0	506	511	
4	0	0	0	0	509	512	
5	0	0	0	0	511	512	
6	0	0	0	0	509	512	
7	0	0	0	0	511	510	
8	0	0	0	0	514	509	
9	0	0	0	0	511	510	
10	0	0	0	0	509	511	
11	0	0	0	0	512	510	
12	0	0	0	0	511	509	
13	0	0	0	0	514	513	
14	0	0	0	0	512	510	
15	0	0	0	0	512	510	
0	0	0	0	0	510	508	
1	0	0	0	0	512	508	
2	0	0	0	0	509	509	
3	0	0	0	0	510	511	
4	0	0	0	0	509	508	
5	0	0	0	0	509	510	
6	0	0	0	0	511	511	
7	0	0	0	0	513	509	
8	0	0	0	0	514	510	
9	0	0	0	0	514	512	
10	0	0	0	0	512	510	
11	0	0	0	0	511	510	
12	0	0	0	0	510	510	
13	0	0	0	0	511	508	
14	0	0	0	0	513	512	
15	0	0	0	0	510	510	
0	0	0	0	0	511	511	
1	0	0	0	0	511	512	
2	0	0	0	0	510	509	
3	0	0	0	0	508	508	
4	0	0	0	0	508	509	
5	0	0	0	0	509	510	
6	0	0	0	0	507	507	
7	0	0	0	0	508	511	
8	0	0	0	0	509	508	
9	0	0	0	0	508	508	
10	0	0	0	0	511	510	
11	0	0	0	0	512	509	
12	0	0	0	0	515	509	
13	0	0	0	0	513	513	
14	0	0	0	0	512	513	
15	0	0	0	0	512	513	
0	0	0	0	0	511	509	
1	0	0	0	0	512	509	
2	0	0	0	0	510	511	
3	0	0	0	0	506	511	
4	0	0	0	0	512	506	
5	0	0	0	0	510	506	
6	0	0	0	0	510	508	
7	0	0	0	0	511	507	
8	0	0	0	0	510	508	
9	0	0	0	0	511	508	
10	0	0	0	0	512	511	
11	0	0	0	0	511	511	
12	0	0	0	0	509	511	
13	0	0	0	0	511	511	
14	0	0	0	0	512	511	
15	0	0	0	0	511	512	
0	0	0	0	0	510	512	
1	0	0	0	0	512	513	
2	0	0	0	0	515	510	
3	0	0	0	0	512	512	
4	0	0	0	0	513	510	
5	0	0	0	0	514	511	
6	0	0	0	0	512	510	
7	0	0	0	0	512	512	
8	0	0	0	0	511	514	
9	0	0	0	0	504	512	
10	0	0	0	0	505	513	
11	0	0	0	0	505	511	
12	0	0	0	0	508	511	
13	0	0	0	0	507	508	
14	0	0	0	0	507	508	
15	0	0	0	0	508	511	
0	0	0	0	0	508	511	
1	0	0	0	0	508	508	
2	0	0	0	0	511	506	
3	0	0	0	0	510	513	
4	0	0	0	0	513	510	
5	0	0	0	0	514	508	
6	0	0	0	0	514	511	
7	0	0	0	0	515	512	
8	0	0	0	0	513	512	
9	0	0	0	0	515	507	
10	0	0	0	0	515	511	
11	0	0	0	0	512	508	
12	0	0	0	0	512	508	
13	0	0	0	0	510	508	
14	0	0	0	0	508	509	
15	0	0	0	0	508	510	
0	0	0	0	0	507	510	
1	0	0	0	0	508	513	
2	0	0	0	0	504	511	
3	0	0	0	0	513	508	
4	0	0	0	0	514	513	
5	0	0	0	0	516	511	
6	0	0	0	0	521	509	
7	0	0	0	0	521	512	
8	0	0	0	0	517	511	
9	0	0	0	0	515	506	
10	0	0	0	0	510	511	
11	0	0	0	0	504	513	
12	0	0	0	0	502	512	
13	0	0	0	0	499	512	
14	0	0	0	0	500	509	
15	0	0	0	0	500	511	
0	0	0	0	0	506	512	
1	0	0	0	0	510	510	
2	0	0	0	0	510	512	
3	0	0	0	0	511	515	
4	0	0	0	0	510	511	
5	0	0	0	0	513	511	
6	0	0	0	0	514	510	
7	0	0	0	0	518	508	
8	0	0	0	0	519	512	
9	0	0	0	0	516	510	
10	0	0	0	0	513	509	
11	0	0	0	0	512	510	
12	0	0	0	0	511	511	
13	0	0	0	0	511	511	
14	0	0	0	0	507	512	
15	0	0	0	0	508	511	
0	0	0	0	0	506	508	
1	0	0	0	0	504	510	
2	0	0	0	0	510	512	
3	0	0	0	0	511	514	
4	0	0	0	0	510	513	
5	0	0	0	0	511	510	
6	0	0	0	0	515	511	
7	0	0	0	0	513	514	
8	0	0	0	0	515	513	
9	0	0	0	0	513	511	
10	0	0	0	0	511	513	
11	0	0	0	0	507	512	
12	0	0	0	0	510	514	
13	0	0	0	0	514	512	
14	0	0	0	0	513	512	
15	0	0	0	0	511	512	
0	0	0	0	0	512	511	
1	0	0	0	0	511	509	
2	0	0	0	0	509	505	
3	0	0	0	0	508	504	
4	0	0	0	0	512	503	
5	0	0	0	0	508	503	
6	0	0	0	0	507	500	
7	0	0	0	0	508	500	
8	0	0	0	0	509	501	
9	0	0	0	0	511	504	
10	0	0	0	0	513	502	
11	0	0	0	0	511	504	
12	0	0	0	0	508	502	
13	0	0	0	0	509	499	
14	0	0	0	0	508	504	
15	0	0	0	0	511	508	
0	0	0	0	0	511	510	
1	0	0	0	0	511	513	
2	0	0	0	0	511	515	
3	0	0	0	0	515	515	
4	0	0	0	0	515	516	
5	0	0	0	0	513	515	
6	0	0	0	0	512	515	
7	0	0	0	0	513	518	
8	0	0	0	0	517	514	
9	0	0	0	0	518	513	
10	0	0	0	0	516	513	
11	0	0	0	0	513	512	
12	0	0	0	0	513	512	
13	0	0	0	0	512	512	
14	0	0	0	0	510	512	
15	0	0	0	0	509	513	
0	0	0	0	0	512	511	
1	0	0	0	0	508	512	
2	0	0	0	0	506	512	
3	0	0	0	0	506	511	
4	0	0	0	0	508	511	
5	0	0	0	0	509	512	
6	0	0	0	0	507	511	
7	0	0	0	0	506	512	
8	0	0	0	0	504	513	
9	0	0	0	0	509	515	
10	0	0	0	0	510	511	
11	0	0	0	0	512	509	
12	0	0	0	0	512	509	
13	0	0	0	0	510	511	
14	0	0	0	0	511	510	
15	0	0	0	0	513	511	
0	0	0	0	0	514	506	
1	0	0	0	0	511	508	
2	0	0	0	0	509	509	
3	0	0	0	0	511	513	
4	0	0	0	0	508	511	
5	0	0	0	0	508	513	
6	0	0	0	0	508	511	
7	0	0	0	0	511	508	
8	0	0	0	0	511	508	
9	0	0	0	0	512	509	
10	0	0	0	0	511	510	
11	0	0	0	0	513	509	
12	0	0	0	0	515	511	
13	0	0	0	0	513	510	
14	0	0	0	0	514	512	
15	0	0	0	0	511	514	
0	0	0	0	0	512	512	
1	0	0	0	0	511	511	
2	0	0	0	0	512	509	
3	0	0	0	0	512	508	
4	0	0	0	0	510	510	
5	0	0	0	0	510	511	
6	0	0	0	0	510	510	
7	0	0	0	0	511	510	
8	0	0	0	0	510	508	
9	0	0	0	0	513	509	
10	0	0	0	0	513	510	
11	0	0	0	0	512	508	
12	0	0	0	0	511	510	
13	0	0	0	0	509	510	
14	0	0	0	0	512	511	
15	0	0	0	0	511	512	
0	0	0	0	0	512	511	
1	0	0	0	0	512	510	
2	0	0	0	0	508	509	
3	0	0	0	0	511	509	
4	0	0	0	0	511	508	
5	0	0	0	0	510	512	
6	0	0	0	0	510	512	
7	0	0	0	0	511	510	
8	0	0	0	0	513	509	
9	0	0	0	0	511	510	
10	0	0	0	0	510	512	
11	0	0	0	0	511	511	
12	0	0	0	0	509	510	
13	0	0	0	0	510	510	
14	0	0	0	0	513	511	
15	0	0	0	0	512	511	
0	0	0	0	0	511	510	
1	0	0	0	0	510	510	
2	0	0	0	0	509	511	
3	0	0	0	0	512	510	
4	0	0	0	0	511	508	
5	0	0	0	0	510	511	
6	0	0	0	0	511	511	
7	0	0	0	0	510	510	
8	0	0	0	0	508	511	
9	0	0	0	0	509	509	
10	0	0	0	0	510	508	
11	0	0	0	0	511	508	
12	0	0	0	0	513	508	
13	0	0	0	0	511	511	
14	0	0	0	0	509	512	
15	0	0	0	0	512	510	
0	0	0	0	0	511	511	
1	0	0	0	0	510	512	
2	0	0	0	0	513	509	
3	0	0	0	0	509	512	
4	0	0	0	0	509	512	
5	0	0	0	0	509	508	
6	0	0	0	0	511	511	
7	0	0	0	0	510	510	
8	0	0	0	0	510	513	
9	0	0	0	0	514	508	
10	0	0	0	0	510	508	
11	0	0	0	0	508	511	
12	0	0	0	0	511	512	
13	0	0	0	0	511	510	
14	0	0	0	0	510	510	
15	0	0	0	0	511	510	
0	0	0	0	0	513	510	
1	0	0	0	0	508	509	
2	0	0	0	0	508	511	
3	0	0	0	0	510	512	
4	0	0	0	0	509	513	
5	0	0	0	0	512	510	
6	0	0	0	0	512	509	
7	0	0	0	0	512	510	
8	0	0	0	0	513	511	
9	0	0	0	0	512	512	
10	0	0	0	0	512	510	
11	0	0	0	0	512	510	
12	0	0	0	0	510	511	
13	0	0	0	0	511	510	
14	0	0	0	0	511	508	
15	0	0	0	0	509	512	
0	0	0	0	0	511	510	
1	0	0	0	0	512	507	
2	0	0	0	0	512	509	
3	0	0	0	0	513	509	
4	0	0	0	0	513	510	
5	0	0	0	0	508	512	
6	0	0	0	0	508	510	
7	0	0	0	0	508	510	
8	0	0	0	0	508	511	
9	0	0	0	0	509	513	
10	0	0	0	0	511	511	
11	0	0	0	0	511	508	
12	0	0	0	0	513	511	
13	0	0	0	0	510	509	
14	0	0	0	0	513	508	
15	0	0	0	0	513	509	
0	0	0	0	0	511	510	
1	0	0	0	0	512	512	
2	0	0	0	0	509	509	
3	0	0	0	0	507	511	
4	0	0	0	0	503	514	
5	0	0	0	0	504	512	
6	0	0	0	0	509	509	
7	0	0	0	0	511	508	
8	0	0	0	0	509	509	
9	0	0	0	0	508	508	
10	0	0	0	0	511	510	
11	0	0	0	0	511	511	
12	0	0	0	0	511	511	
13	0	0	0	0	510	511	
14	0	0	0	0	513	512	
15	0	0	0	0	511	512	
0	0	0	0	0	512	508	
1	0	0	0	0	511	515	
2	0	0	0	0	513	512	
3	0	0	0	0	511	509	
4	0	0	0	0	509	510	
5	0	0	0	0	512	507	
6	0	0	0	0	516	507	
7	0	0	0	0	518	508	
8	0	0	0	0	515	508	
9	0	0	0	0	516	505	
10	0	0	0	0	515	508	
11	0	0	0	0	513	508	
12	0	0	0	0	510	509	
13	0	0	0	0	510	512	
14	0	0	0	0	505	512	
15	0	0	0	0	505	512	
0	0	0	0	0	502	508	
1	0	0	0	0	502	511	
2	0	0	0	0	502	513	
3	0	0	0	0	508	511	
4	0	0	0	0	513	511	
5	0	0	0	0	510	508	
6	0	0	0	0	514	507	
7	0	0	0	0	511	507	
8	0	0	0	0	511	509	
9	0	0	0	0	513	513	
10	0	0	0	0	509	513	
11	0	0	0	0	511	510	
12	0	0	0	0	513	510	
13	0	0	0	0	514	509	
14	0	0	0	0	511	510	
15	0	0	0	0	512	511	
0	0	0	0	0	512	511	
1	0	0	0	0	512	509	
2	0	0	0	0	512	508	
3	0	0	0	0	511	508	
4	0	0	0	0	509	507	
5	0	0	0	0	509	512	
6	0	0	0	0	510	513	
7	0	0	0	0	512	511	
8	0	0	0	0	512	511	
9	0	0	0	0	512	511	
10	0	0	0	0	513	512	
11	0	0	0	0	511	511	
12	0	0	0	0	512	511	
13	0	0	0	0	512	509	
14	0	0	0	0	509	510	
15	0	0	0	0	511	510	
0	0	0	0	0	511	506	
1	0	0	0	0	511	510	
2	0	0	0	0	512	509	
3	0	0	0	0	511	511	
4	0	0	0	0	511	510	
5	0	0	0	0	512	510	
6	0	0	0	0	512	507	
7	0	0	0	0	507	509	
8	0	0	0	0	502	507	
9	0	0	0	0	506	509	
10	0	0	0	0	505	511	
11	0	0	0	0	508	511	
12	0	0	0	0	506	512	
13	0	0	0	0	507	512	
14	0	0	0	0	508	511	
15	0	0	0	0	511	513	
0	0	0	0	0	513	512	
1	0	0	0	0	511	510	
2	0	0	0	0	512	510	
3	0	0	0	0	513	510	
4	0	0	0	0	513	509	
5	0	0	0	0	515	509	
6	0	0	0	0	515	509	
7	0	0	0	0	513	509	
8	0	0	0	0	511	509	
9	0	0	0	0	512	513	
10	0	0	0	0	512	513	
11	0	0	0	0	508	507	
12	0	0	0	0	511	508	
13	0	0	0	0	512	510	
14	0	0	0	0	509	513	
15	0	0	0	0	508	511	
0	0	0	0	0	508	510	
1	0	0	0	0	510	510	
2	0	0	0	0	508	507	
3	0	0	0	0	506	512	
4	0	0	0	0	504	512	
5	0	0	0	0	508	514	
6	0	0	0	0	506	513	
7	0	0	0	0	508	511	
8	0	0	0	0	512	512	
9	0	0	0	0	514	510	
10	0	0	0	0	514	508	
11	0	0	0	0	514	511	
12	0	0	0	0	516	510	
13	0	0	0	0	515	510	
14	0	0	0	0	515	510	
15	0	0	0	0	513	511	
0	0	0	0	0	512	509	
1	0	0	0	0	511	512	
2	0	0	0	0	510	511	
3	0	0	0	0	508	512	
4	0	0	0	0	510	511	
5	0	0	0	0	507	509	
6	0	0	0	0	507	510	
7	0	0	0	0	510	508	
8	0	0	0	0	511	510	
9	0	0	0	0	510	509	
10	0	0	0	0	511	513	
11	0	0	0	0	513	510	
12	0	0	0	0	519	511	
13	0	0	0	0	517	512	
14	0	0	0	0	511	513	
15	0	0	0	0	512	512	
0	0	0	0	0	507	511	
1	0	0	0	0	505	512	
2	0	0	0	0	504	510	
3	0	0	0	0	507	509	
4	0	0	0	0	504	510	
5	0	0	0	0	504	508	
6	0	0	0	0	506	507	
7	0	0	0	0	507	510	
8	0	0	0	0	512	510	
9	0	0	0	0	513	510	
10	0	0	0	0	514	510	
11	0	0	0	0	514	510	
12	0	0	0	0	515	509	
13	0	0	0	0	513	510	
14	0	0	0	0	513	508	
15	0	0	0	0	512	511	
0	0	0	0	0	511	511	
1	0	0	0	0	509	511	
2	0	0	0	0	511	510	
3	0	0	0	0	512	511	
4	0	0	0	0	515	510	
5	0	0	0	0	514	508	
6	0	0	0	0	511	508	
7	0	0	0	0	511	508	
8	0	0	0	0	510	510	
9	0	0	0	0	507	511	
10	0	0	0	0	511	510	
11	0	0	0	0	511	510	
12	0	0	0	0	512	510	
13	0	0	0	0	510	509	
14	0	0	0	0	510	513	
15	0	0	0	0	510	511	
0	0	0	0	0	509	511	
1	0	0	0	0	513	510	
2	0	0	0	0	510	511	
3	0	0	0	0	508	512	
4	0	0	0	0	503	512	
5	0	0	0	0	503	511	
6	0	0	0	0	510	509	
7	0	0	0	0	516	511	
8	0	0	0	0	519	511	
9	0	0	0	0	517	512	
10	0	0	0	0	513	511	
11	0	0	0	0	511	507	
12	0	0	0	0	508	506	
13	0	0	0	0	506	507	
14	0	0	0	0	504	509	
15	0	0	0	0	507	508	
0	0	0	0	0	508	510	
1	0	0	0	0	512	510	
2	0	0	0	0	512	511	
3	0	0	0	0	513	512	
4	0	0	0	0	510	509	
5	0	0	0	0	513	510	
6	0	0	0	0	515	510	
7	0	0	0	0	512	510	
8	0	0	0	0	510	509	
9	0	0	0	0	510	508	
10	0	0	0	0	512	511	
11	0	0	0	0	515	512	
12	0	0	0	0	515	511	
13	0	0	0	0	511	512	
14	0	0	0	0	509	512	
15	0	0	0	0	508	509	
0	0	0	0	0	506	510	
1	0	0	0	0	506	509	
2	0	0	0	0	508	514	
3	0	0	0	0	507	513	
4	0	0	0	0	506	512	
5	0	0	0	0	508	509	
6	0	0	0	0	507	510	
7	0	0	0	0	507	512	
8	0	0	0	0	507	510	
9	0	0	0	0	507	510	
10	0	0	0	0	511	510	
11	0	0	0	0	511	509	
12	0	0	0	0	514	509	
13	0	0	0	0	516	510	
14	0	0	0	0	515	511	
15	0	0	0	0	515	509	
0	0	0	0	0	514	512	
1	0	0	0	0	513	509	
2	0	0	0	0	511	515	
3	0	0	0	0	514	511	
4	0	0	0	0	511	508	
5	0	0	0	0	509	508	
6	0	0	0	0	510	510	
7	0	0	0	0	511	507	
8	0	0	0	0	513	509	
9	0	0	0	0	511	511	
10	0	0	0	0	514	509	
11	0	0	0	0	512	510	
12	0	0	0	0	511	513	
13	0	0	0	0	511	512	
14	0	0	0	0	511	511	
15	0	0	0	0	512	510	
0	0	0	0	0	512	511	
1	0	0	0	0	512	512	
2	0	0	0	0	513	513	
3	0	0	0	0	513	512	
4	0	0	0	0	513	512	
5	0	0	0	0	511	510	
6	0	0	0	0	513	508	
7	0	0	0	0	511	504	
8	0	0	0	0	511	510	
9	0	0	0	0	508	509	
10	0	0	0	0	507	508	
11	0	0	0	0	504	508	
12	0	0	0	0	506	509	
13	0	0	0	0	508	510	
14	0	0	0	0	515	510	
15	0	0	0	0	514	509	
0	0	0	0	0	511	513	
1	0	0	0	0	511	512	
2	0	0	0	0	510	510	
3	0	0	0	0	510	511	
4	0	0	0	0	506	511	
5	0	0	0	0	507	514	
6	0	0	0	0	511	511	
7	0	0	0	0	513	512	
8	0	0	0	0	515	510	
9	0	0	0	0	514	510	
10	0	0	0	0	513	513	
11	0	0	0	0	511	511	
12	0	0	0	0	511	508	
13	0	0	0	0	514	510	
14	0	0	0	0	515	508	
15	0	0	0	0	513	508	
0	0	0	0	0	510	510	
1	0	0	0	0	509	510	
2	0	0	0	0	510	511	
3	0	0	0	0	510	508	
4	0	0	0	0	511	510	
5	0	0	0	0	507	509	
6	0	0	0	0	504	511	
7	0	0	0	0	506	513	
8	0	0	0	0	504	511	
9	0	0	0	0	508	509	
10	0	0	0	0	508	512	
11	0	0	0	0	505	513	
12	0	0	0	0	507	510	
13	0	0	0	0	509	510	
14	0	0	0	0	508	510	
15	0	0	0	0	511	511	
0	0	0	0	0	511	510	
1	0	0	0	0	514	511	
2	0	0	0	0	516	508	
3	0	0	0	0	516	508	
4	0	0	0	0	516	510	
5	0	0	0	0	516	511	
6	0	0	0	0	509	511	
7	0	0	0	0	508	513	
8	0	0	0	0	512	511	
9	0	0	0	0	513	512	
10	0	0	0	0	509	514	
11	0	0	0	0	507	509	
12	0	0	0	0	508	510	
13	0	0	0	0	510	512	
14	0	0	0	0	512	510	
15	0	0	0	0	514	510	
0	0	0	0	0	515	509	
1	0	0	0	0	516	509	
2	0	0	0	0	513	509	
3	0	0	0	0	512	509	
4	0	0	0	0	513	507	
5	0	0	0	0	514	511	
6	0	0	0	0	511	510	
7	0	0	0	0	509	511	
8	0	0	0	0	509	513	
9	0	0	0	0	509	509	
10	0	0	0	0	509	511	
11	0	0	0	0	507	512	
12	0	0	0	0	504	511	
13	0	0	0	0	506	511	
14	0	0	0	0	504	509	
15	0	0	0	0	508	509	
0	0	0	0	0	509	509	
1	0	0	0	0	511	508	
2	0	0	0	0	512	509	
3	0	0	0	0	509	511	
4	0	0	0	0	512	508	
5	0	0	0	0	511	512	
6	0	0	0	0	512	511	
7	0	0	0	0	512	511	
8	0	0	0	0	508	511	
9	0	0	0	0	511	510	
10	0	0	0	0	507	508	
11	0	0	0	0	510	511	
12	0	0	0	0	510	510	
13	0	0	0	0	512	512	
14	0	0	0	0	512	509	
15	0	0	0	0	516	509	
0	0	0	0	0	511	511	
1	0	0	0	0	512	512	
2	0	0	0	0	512	511	
3	0	0	0	0	513	509	
4	0	0	0	0	513	509	
5	0	0	0	0	513	509	
6	0	0	0	0	511	510	
7	0	0	0	0	513	508	
8	0	0	0	0	511	508	
9	0	0	0	0	510	511	
10	0	0	0	0	512	513	
11	0	0	0	0	515	511	
12	0	0	0	0	513	509	
13	0	0	0	0	514	511	
14	0	0	0	0	515	511	
15	0	0	0	0	513	511	
0	0	0	0	0	511	507	
1	0	0	0	0	504	509	
2	0	0	0	0	502	512	
3	0	0	0	0	503	510	
4	0	0	0	0	504	512	
5	0	0	0	0	507	512	
6	0	0	0	0	511	513	
7	0	0	0	0	511	512	
8	0	0	0	0	511	510	
9	0	0	0	0	510	509	
10	0	0	0	0	512	511	
11	0	0	0	0	513	511	
12	0	0	0	0	513	510	
13	0	0	0	0	512	507	
14	0	0	0	0	514	508	
15	0	0	0	0	514	511	
0	0	0	0	0	515	511	
1	0	0	0	0	517	509	
2	0	0	0	0	513	512	
3	0	0	0	0	510	513	
4	0	0	0	0	512	508	
5	0	0	0	0	511	509	
6	0	0	0	0	511	510	
7	0	0	0	0	507	511	
8	0	0	0	0	505	510	
9	0	0	0	0	502	512	
10	0	0	0	0	500	513	
11	0	0	0	0	503	510	
12	0	0	0	0	506	510	
13	0	0	0	0	509	508	
14	0	0	0	0	512	508	
15	0	0	0	0	509	510	
0	0	0	0	0	510	511	
1	0	0	0	0	511	511	
2	0	0	0	0	511	510	
3	0	0	0	0	512	508	
4	0	0	0	0	513	507	
5	0	0	0	0	512	510	
6	0	0	0	0	514	510	
7	0	0	0	0	515	509	
8	0	0	0	0	512	511	
9	0	0	0	0	512	510	
10	0	0	0	0	514	510	
11	0	0	0	0	514	512	
12	0	0	0	0	516	513	
13	0	0	0	0	515	513	
14	0	0	0	0	513	510	
15	0	0	0	0	511	511	
0	0	0	0	0	510	508	
1	0	0	0	0	510	510	
2	0	0	0	0	509	509	
3	0	0	0	0	505	511	
4	0	0	0	0	506	508	
5	0	0	0	0	508	512	
6	0	0	0	0	509	509	
7	0	0	0	0	511	510	
8	0	0	0	0	511	510	
9	0	0	0	0	509	510	
10	0	0	0	0	509	511	
11	0	0	0	0	510	511	
12	0	0	0	0	508	510	
13	0	0	0	0	507	508	
14	0	0	0	0	507	509	
15	0	0	0	0	510	510	
0	0	0	0	0	513	507	
1	0	0	0	0	511	510	
2	0	0	0	0	509	512	
3	0	0	0	0	509	512	
4	0	0	0	0	510	509	
5	0	0	0	0	512	510	
6	0	0	0	0	512	510	
7	0	0	0	0	513	511	
8	0	0	0	0	513	513	
9	0	0	0	0	514	512	
10	0	0	0	0	512	509	
11	0	0	0	0	512	512	
12	0	0	0	0	511	509	
13	0	0	0	0	512	510	
14	0	0	0	0	513	509	
15	0	0	0	0	511	509	
0	0	0	0	0	511	510	
1	0	0	0	0	510	510	
2	0	0	0	0	512	511	
3	0	0	0	0	512	509	
4	0	0	0	0	514	510	
5	0	0	0	0	508	513	
6	0	0	0	0	507	512	
7	0	0	0	0	505	512	
8	0	0	0	0	506	512	
9	0	0	0	0	508	509	
10	0	0	0	0	507	509	
11	0	0	0	0	508	511	
12	0	0	0	0	508	512	
13	0	0	0	0	510	511	
14	0	0	0	0	513	511	
15	0	0	0	0	512	512	
0	0	0	0	0	511	511	
1	0	0	0	0	514	511	
2	0	0	0	0	513	512	
3	0	0	0	0	510	513	
4	0	0	0	0	509	511	
5	0	0	0	0	512	510	
6	0	0	0	0	513	512	
7	0	0	0	0	512	512	
8	0	0	0	0	512	511	
9	0	0	0	0	512	513	
10	0	0	0	0	511	515	
11	0	0	0	0	511	515	
12	0	0	0	0	511	514	
13	0	0	0	0	512	512	
14	0	0	0	0	512	511	
15	0	0	0	0	512	511	
0	0	0	0	0	511	511	
1	0	0	0	0	510	508	
2	0	0	0	0	511	508	
3	0	0	0	0	511	509	
4	0	0	0	0	509	505	
5	0	0	0	0	509	504	
6	0	0	0	0	508	505	
7	0	0	0	0	508	504	
8	0	0	0	0	511	505	
9	0	0	0	0	510	505	
10	0	0	0	0	511	507	
11	0	0	0	0	509	507	
12	0	0	0	0	511	507	
13	0	0	0	0	510	506	
14	0	0	0	0	510	505	
15	0	0	0	0	512	506	
0	0	0	0	0	513	507	
1	0	0	0	0	510	506	
2	0	0	0	0	512	506	
3	0	0	0	0	513	508	
4	0	0	0	0	515	508	
5	0	0	0	0	513	513	
6	0	0	0	0	516	513	
7	0	0	0	0	514	512	
8	0	0	0	0	511	512	
9	0	0	0	0	509	512	
10	0	0	0	0	511	514	
11	0	0	0	0	512	513	
12	0	0	0	0	510	513	
13	0	0	0	0	510	513	
14	0	0	0	0	511	513	
15	0	0	0	0	508	513	
0	0	0	0	0	511	511	
1	0	0	0	0	504	512	
2	0	0	0	0	500	511	
3	0	0	0	0	499	510	
4	0	0	0	0	504	509	
5	0	0	0	0	508	509	
6	0	0	0	0	507	512	
7	0	0	0	0	511	513	
8	0	0	0	0	509	513	
9	0	0	0	0	511	514	
10	0	0	0	0	513	510	
11	0	0	0	0	512	511	
12	0	0	0	0	510	512	
13	0	0	0	0	511	513	
14	0	0	0	0	516	513	
15	0	0	0	0	522	514	
0	0	0	0	0	522	510	
1	0	0	0	0	521	509	
2	0	0	0	0	519	509	
3	0	0	0	0	514	509	
4	0	0	0	0	512	508	
5	0	0	0	0	507	513	
6	0	0	0	0	504	512	
7	0	0	0	0	499	511	
8	0	0	0	0	497	508	
9	0	0	0	0	499	510	
10	0	0	0	0	499	513	
11	0	0	0	0	503	514	
12	0	0	0	0	509	510	
13	0	0	0	0	512	510	
14	0	0	0	0	513	509	
15	0	0	0	0	519	508	
0	0	0	0	0	513	509	
1	0	0	0	0	511	510	
2	0	0	0	0	510	509	
3	0	0	0	0	515	511	
4	0	0	0	0	514	510	
5	0	0	0	0	514	511	
6	0	0	0	0	513	510	
7	0	0	0	0	514	510	
8	0	0	0	0	513	510	
9	0	0	0	0	511	510	
10	0	0	0	0	514	512	
11	0	0	0	0	514	511	
12	0	0	0	0	511	510	
13	0	0	0	0	511	510	
14	0	0	0	0	512	507	
15	0	0	0	0	513	508	
0	0	0	0	0	513	510	
1	0	0	0	0	512	511	
2	0	0	0	0	511	510	
3	0	0	0	0	510	509	
4	0	0	0	0	509	510	
5	0	0	0	0	510	512	
6	0	0	0	0	510	512	
7	0	0	0	0	508	512	
8	0	0	0	0	508	511	
9	0	0	0	0	507	510	
10	0	0	0	0	509	509	
11	0	0	0	0	510	510	
12	0	0	0	0	511	512	
13	0	0	0	0	511	510	
14	0	0	0	0	510	509	
15	0	0	0	0	512	510	
0	0	0	0	0	512	510	
1	0	0	0	0	513	513	
2	0	0	0	0	511	511	
3	0	0	0	0	511	509	
4	0	0	0	0	513	512	
5	0	0	0	0	511	510	
6	0	0	0	0	510	511	
7	0	0	0	0	512	510	
8	0	0	0	0	508	510	
9	0	0	0	0	510	508	
10	0	0	0	0	509	512	
11	0	0	0	0	509	511	
12	0	0	0	0	510	513	
13	0	0	0	0	510	512	
14	0	0	0	0	511	508	
15	0	0	0	0	509	510	
0	0	0	0	0	510	510	
1	0	0	0	0	513	509	
2	0	0	0	0	514	509	
3	0	0	0	0	512	511	
4	0	0	0	0	511	510	
5	0	0	0	0	511	511	
6	0	0	0	0	509	508	
7	0	0	0	0	513	509	
8	0	0	0	0	510	509	
9	0	0	0	0	509	509	
10	0	0	0	0	510	509	
11	0	0	0	0	512	510	
12	0	0	0	0	510	509	
13	0	0	0	0	512	511	
14	0	0	0	0	511	511	
15	0	0	0	0	511	510	
0	0	0	0	0	511	512	
1	0	0	0	0	511	509	
2	0	0	0	0	508	512	
3	0	0	0	0	512	511	
4	0	0	0	0	511	509	
5	0	0	0	0	514	512	
6	0	0	0	0	512	511	
7	0	0	0	0	512	511	
8	0	0	0	0	511	513	
9	0	0	0	0	512	512	
10	0	0	0	0	510	510	
11	0	0	0	0	511	511	
12	0	0	0	0	510	512	
13	0	0	0	0	512	508	
14	0	0	0	0	511	511	
15	0	0	0	0	512	512	
0	0	0	0	0	512	512	
1	0	0	0	0	513	512	
2	0	0	0	0	505	510	
3	0	0	0	0	506	513	
4	0	0	0	0	506	512	
5	0	0	0	0	506	510	
6	0	0	0	0	508	510	
7	0	0	0	0	509	510	
8	0	0	0	0	511	511	
9	0	0	0	0	512	510	
10	0	0	0	0	513	511	
11	0	0	0	0	513	512	
12	0	0	0	0	512	512	
13	0	0	0	0	508	508	
14	0	0	0	0	509	511	
15	0	0	0	0	508	509	
0	0	0	0	0	510	508	
1	0	0	0	0	511	508	
2	0	0	0	0	510	510	
3	0	0	0	0	511	510	
4	0	0	0	0	511	510	
5	0	0	0	0	510	511	
6	0	0	0	0	511	511	
7	0	0	0	0	513	511	
8	0	0	0	0	512	510	
9	0	0	0	0	511	509	
10	0	0	0	0	512	511	
11	0	0	0	0	511	509	
12	0	0	0	0	511	512	
13	0	0	0	0	511	511	
14	0	0	0	0	510	512	
15	0	0	0	0	512	509	
0	0	0	0	0	512	510	
1	0	0	0	0	512	509	
2	0	0	0	0	513	511	
3	0	0	0	0	510	511	
4	0	0	0	0	510	510	
5	0	0	0	0	510	511	
6	0	0	0	0	512	510	
7	0	0	0	0	511	512	
8	0	0	0	0	509	511	
9	0	0	0	0	508	510	
10	0	0	0	0	506	508	
11	0	0	0	0	507	511	
12	0	0	0	0	508	511	
13	0	0	0	0	509	508	
14	0	0	0	0	506	509	
15	0	0	0	0	507	509	
0	0	0	0	0	511	511	
1	0	0	0	0	513	513	
2	0	0	0	0	510	511	
3	0	0	0	0	510	510	
4	0	0	0	0	511	510	
5	0	0	0	0	512	508	
6	0	0	0	0	511	508	
7	0	0	0	0	510	508	
8	0	0	0	0	511	509	
9	0	0	0	0	512	512	
10	0	0	0	0	512	510	
11	0	0	0	0	514	510	
12	0	0	0	0	511	512	
13	0	0	0	0	511	512	
14	0	0	0	0	511	510	
15	0	0	0	0	512	511	
0	0	0	0	0	513	509	
1	0	0	0	0	511	511	
2	0	0	0	0	510	510	
3	0	0	0	0	508	511	
4	0	0	0	0	510	511	
5	0	0	0	0	512	512	
6	0	0	0	0	513	511	
7	0	0	0	0	511	509	
8	0	0	0	0	513	511	
9	0	0	0	0	512	511	
10	0	0	0	0	509	508	
11	0	0	0	0	510	507	
12	0	0	0	0	510	509	
13	0	0	0	0	509	509	
14	0	0	0	0	510	512	
15	0	0	0	0	508	513	
0	0	0	0	0	511	512	
1	0	0	0	0	511	512	
2	0	0	0	0	511	511	
3	0	0	0	0	511	512	
4	0	0	0	0	513	510	
5	0	0	0	0	511	508	
6	0	0	0	0	509	509	
7	0	0	0	0	513	508	
8	0	0	0	0	513	508	
9	0	0	0	0	516	508	
10	0	0	0	0	516	508	
11	0	0	0	0	511	510	
12	0	0	0	0	512	511	
13	0	0	0	0	510	511	
14	0	0	0	0	512	510	
15	0	0	0	0	513	510	
0	0	0	0	0	510	511	
1	0	0	0	0	505	511	
2	0	0	0	0	506	511	
3	0	0	0	0	508	511	
4	0	0	0	0	506	513	
5	0	0	0	0	506	514	
6	0	0	0	0	505	508	
7	0	0	0	0	507	508	
8	0	0	0	0	503	509	
9	0	0	0	0	504	509	
10	0	0	0	0	507	511	
11	0	0	0	0	508	513	
12	0	0	0	0	511	512	
13	0	0	0	0	515	512	
14	0	0	0	0	514	510	
15	0	0	0	0	518	509	
0	0	0	0	0	515	507	
1	0	0	0	0	516	505	
2	0	0	0	0	515	507	
3	0	0	0	0	512	506	
4	0	0	0	0	511	508	
5	0	0	0	0	510	510	
6	0	0	0	0	508	507	
7	0	0	0	0	508	510	
8	0	0	0	0	507	510	
9	0	0	0	0	504	511	
10	0	0	0	0	505	511	
11	0	0	0	0	511	511	
12	0	0	0	0	511	513	
13	0	0	0	0	511	511	
14	0	0	0	0	511	507	
15	0	0	0	0	512	511	
0	0	0	0	0	513	510	
1	0	0	0	0	512	511	
2	0	0	0	0	512	512	
3	0	0	0	0	514	510	
4	0	0	0	0	515	511	
5	0	0	0	0	512	513	
6	0	0	0	0	512	510	
7	0	0	0	0	511	509	
8	0	0	0	0	510	511	
9	0	0	0	0	511	514	
10	0	0	0	0	510	510	
11	0	0	0	0	510	510	
12	0	0	0	0	510	511	
13	0	0	0	0	509	510	
14	0	0	0	0	507	511	
15	0	0	0	0	508	510	
0	0	0	0	0	509	511	
1	0	0	0	0	511	511	
2	0	0	0	0	511	510	
3	0	0	0	0	513	509	
4	0	0	0	0	515	511	
5	0	0	0	0	513	510	
6	0	0	0	0	513	511	
7	0	0	0	0	512	513	
8	0	0	0	0	511	511	
9	0	0	0	0	512	508	
10	0	0	0	0	515	508	
11	0	0	0	0	514	509	
12	0	0	0	0	511	509	
13	0	0	0	0	511	509	
14	0	0	0	0	508	511	
15	0	0	0	0	506	511	
0	0	0	0	0	504	510	
1	0	0	0	0	506	509	
2	0	0	0	0	506	509	
3	0	0	0	0	505	508	
4	0	0	0	0	508	510	
5	0	0	0	0	508	513	
6	0	0	0	0	510	514	
7	0	0	0	0	512	511	
8	0	0	0	0	511	510	
9	0	0	0	0	511	511	
10	0	0	0	0	511	509	
11	0	0	0	0	510	512	
12	0	0	0	0	510	510	
13	0	0	0	0	511	511	
14	0	0	0	0	511	508	
15	0	0	0	0	512	509	
0	0	0	0	0	511	512	
1	0	0	0	0	512	511	
2	0	0	0	0	511	509	
3	0	0	0	0	513	511	
4	0	0	0	0	514	510	
5	0	0	0	0	516	509	
6	0	0	0	0	512	511	
7	0	0	0	0	512	511	
8	0	0	0	0	514	511	
9	0	0	0	0	511	510	
10	0	0	0	0	509	513	
11	0	0	0	0	509	511	
12	0	0	0	0	511	510	
13	0	0	0	0	511	513	
14	0	0	0	0	510	510	
15	0	0	0	0	508	509	
0	0	0	0	0	509	508	
1	0	0	0	0	509	508	
2	0	0	0	0	509	507	
3	0	0	0	0	509	510	
4	0	0	0	0	511	511	
5	0	0	0	0	509	513	
6	0	0	0	0	512	511	
7	0	0	0	0	512	509	
8	0	0	0	0	513	509	
9	0	0	0	0	512	509	
10	0	0	0	0	511	509	
11	0	0	0	0	509	509	
12	0	0	0	0	508	510	
13	0	0	0	0	505	508	
14	0	0	0	0	507	509	
15	0	0	0	0	510	510	
0	0	0	0	0	509	511	
1	0	0	0	0	509	511	
2	0	0	0	0	510	510	
3	0	0	0	0	513	513	
4	0	0	0	0	515	512	
5	0	0	0	0	512	513	
6	0	0	0	0	511	513	
7	0	0	0	0	512	512	
8	0	0	0	0	511	510	
9	0	0	0	0	511	510	
10	0	0	0	0	509	510	
11	0	0	0	0	512	509	
12	0	0	0	0	509	509	
13	0	0	0	0	511	511	
14	0	0	0	0	511	508	
15	0	0	0	0	512	508	
0	0	0	0	0	508	511	
1	0	0	0	0	507	512	
2	0	0	0	0	507	509	
3	0	0	0	0	510	511	
4	0	0	0	0	511	512	
5	0	0	0	0	510	509	
6	0	0	0	0	511	512	
7	0	0	0	0	513	512	
8	0	0	0	0	513	513	
9	0	0	0	0	513	514	
10	0	0	0	0	511	511	
11	0	0	0	0	511	511	
12	0	0	0	0	512	510	
13	0	0	0	0	514	509	
14	0	0	0	0	513	508	
15	0	0	0	0	511	506	
0	0	0	0	0	508	505	
1	0	0	0	0	509	503	
2	0	0	0	0	507	505	
3	0	0	0	0	507	508	
4	0	0	0	0	507	510	
5	0	0	0	0	506	511	
6	0	0	0	0	509	511	
7	0	0	0	0	510	515	
8	0	0	0	0	509	511	
9	0	0	0	0	512	511	
10	0	0	0	0	510	510	
11	0	0	0	0	513	510	
12	0	0	0	0	510	511	
13	0	0	0	0	511	511	
14	0	0	0	0	511	511	
15	0	0	0	0	513	509	
0	0	0	0	0	514	508	
1	0	0	0	0	516	511	
2	0	0	0	0	516	509	
3	0	0	0	0	519	509	
4	0	0	0	0	517	510	
5	0	0	0	0	515	513	
6	0	0	0	0	515	514	
7	0	0	0	0	515	513	
8	0	0	0	0	511	510	
9	0	0	0	0	504	509	
10	0	0	0	0	503	508	
11	0	0	0	0	499	510	
12	0	0	0	0	496	509	
13	0	0	0	0	499	509	
14	0	0	0	0	498	511	
15	0	0	0	0	504	509	
0	0	0	0	0	504	511	
1	0	0	0	0	510	510	
2	0	0	0	0	515	512	
3	0	0	0	0	516	512	
4	0	0	0	0	514	512	
5	0	0	0	0	515	512	
6	0	0	0	0	514	512	
7	0	0	0	0	515	510	
8	0	0	0	0	515	511	
9	0	0	0	0	514	511	
10	0	0	0	0	514	510	
11	0	0	0	0	514	510	
12	0	0	0	0	513	511	
13	0	0	0	0	513	509	
14	0	0	0	0	512	511	
15	0	0	0	0	512	511	
0	0	0	0	0	516	510	
1	0	0	0	0	513	510	
2	0	0	0	0	512	510	
3	0	0	0	0	511	511	
4	0	0	0	0	509	512	
5	0	0	0	0	509	509	
6	0	0	0	0	505	510	
7	0	0	0	0	508	511	
8	0	0	0	0	507	511	
9	0	0	0	0	506	511	
10	0	0	0	0	508	512	
11	0	0	0	0	510	510	
12	0	0	0	0	510	510	
13	0	0	0	0	510	510	
14	0	0	0	0	513	509	
15	0	0	0	0	511	510	
0	0	0	0	0	512	510	
1	0	0	0	0	511	511	
2	0	0	0	0	513	510	
3	0	0	0	0	507	512	
4	0	0	0	0	508	510	
5	0	0	0	0	512	509	
6	0	0	0	0	513	510	
7	0	0	0	0	511	511	
8	0	0	0	0	513	509	
9	0	0	0	0	512	510	
10	0	0	0	0	510	511	
11	0	0	0	0	512	510	
12	0	0	0	0	511	510	
13	0	0	0	0	511	509	
14	0	0	0	0	512	509	
15	0	0	0	0	513	510	
0	0	0	0	0	512	509	
1	0	0	0	0	512	510	
2	0	0	0	0	511	513	
3	0	0	0	0	513	511	
4	0	0	0	0	510	513	
5	0	0	0	0	508	511	
6	0	0	0	0	508	511	
7	0	0	0	0	508	511	
8	0	0	0	0	509	510	
9	0	0	0	0	511	511	
10	0	0	0	0	508	510	
11	0	0	0	0	511	508	
12	0	0	0	0	511	511	
13	0	0	0	0	511	510	
14	0	0	0	0	510	511	
15	0	0	0	0	510	510	
0	0	0	0	0	513	510	
1	0	0	0	0	510	512	
2	0	0	0	0	511	511	
3	0	0	0	0	515	513	
4	0	0	0	0	512	512	
5	0	0	0	0	512	510	
6	0	0	0	0	511	511	
7	0	0	0	0	511	508	
8	0	0	0	0	511	508	
9	0	0	0	0	510	507	
10	0	0	0	0	512	508	
11	0	0	0	0	512	508	
12	0	0	0	0	511	510	
13	0	0	0	0	510	509	
14	0	0	0	0	512	510	
15	0	0	0	0	511	510	
0	0	0	0	0	510	510	
1	0	0	0	0	513	510	
2	0	0	0	0	513	508	
3	0	0	0	0	512	509	
4	0	0	0	0	510	514	
5	0	0	0	0	507	511	
6	0	0	0	0	507	510	
7	0	0	0	0	507	513	
8	0	0	0	0	508	509	
9	0	0	0	0	508	508	
10	0	0	0	0	505	511	
11	0	0	0	0	505	511	
12	0	0	0	0	508	511	
13	0	0	0	0	508	511	
14	0	0	0	0	511	510	
15	0	0	0	0	512	511	
0	0	0	0	0	513	510	
1	0	0	0	0	511	510	
2	0	0	0	0	511	510	
3	0	0	0	0	512	509	
4	0	0	0	0	510	510	
5	0	0	0	0	507	510	
6	0	0	0	0	509	513	
7	0	0	0	0	508	508	
8	0	0	0	0	511	510	
9	0	0	0	0	511	511	
10	0	0	0	0	512	510	
11	0	0	0	0	515	512	
12	0	0	0	0	515	509	
13	0	0	0	0	512	509	
14	0	0	0	0	511	508	
15	0	0	0	0	510	507	
0	0	0	0	0	506	509	
1	0	0	0	0	504	509	
2	0	0	0	0	508	511	
3	0	0	0	0	509	513	
4	0	0	0	0	508	510	
5	0	0	0	0	508	512	
6	0	0	0	0	510	511	
7	0	0	0	0	515	510	
8	0	0	0	0	516	508	
9	0	0	0	0	515	507	
10	0	0	0	0	516	510	
11	0	0	0	0	516	510	
12	0	0	0	0	513	511	
13	0	0	0	0	513	511	
14	0	0	0	0	512	511	
15	0	0	0	0	511	512	
0	0	0	0	0	509	511	
1	0	0	0	0	508	512	
2	0	0	0	0	510	512	
3	0	0	0	0	510	511	
4	0	0	0	0	510	511	
5	0	0	0	0	510	510	
6	0	0	0	0	507	510	
7	0	0	0	0	510	510	
8	0	0	0	0	511	510	
9	0	0	0	0	513	510	
10	0	0	0	0	511	512	
11	0	0	0	0	512	511	
12	0	0	0	0	511	511	
13	0	0	0	0	512	511	
14	0	0	0	0	512	509	
15	0	0	0	0	511	509	
0	0	0	0	0	511	509	
1	0	0	0	0	512	510	
2	0	0	0	0	513	512	
3	0	0	0	0	514	513	
4	0	0	0	0	512	513	
5	0	0	0	0	510	511	
6	0	0	0	0	511	510	
7	0	0	0	0	511	511	
8	0	0	0	0	511	512	
9	0	0	0	0	512	512	
10	0	0	0	0	511	512	
11	0	0	0	0	511	513	
12	0	0	0	0	512	512	
13	0	0	0	0	512	510	
14	0	0	0	0	511	514	
15	0	0	0	0	507	513	
0	0	0	0	0	506	509	
1	0	0	0	0	505	511	
2	0	0	0	0	504	511	
3	0	0	0	0	507	509	
4	0	0	0	0	510	510	
5	0	0	0	0	511	511	
6	0	0	0	0	513	513	
7	0	0	0	0	516	513	
8	0	0	0	0	518	511	
9	0	0	0	0	514	511	
10	0	0	0	0	514	509	
11	0	0	0	0	512	510	
12	0	0	0	0	511	511	
13	0	0	0	0	507	511	
14	0	0	0	0	503	508	
15	0	0	0	0	498	507	
0	0	0	0	0	499	510	
1	0	0	0	0	504	507	
2	0	0	0	0	503	504	
3	0	0	0	0	507	503	
4	0	0	0	0	508	504	
5	0	0	0	0	511	505	
6	0	0	0	0	514	503	
7	0	0	0	0	514	507	
8	0	0	0	0	512	508	
9	0	0	0	0	514	507	
10	0	0	0	0	516	507	
11	0	0	0	0	517	508	
12	0	0	0	0	514	508	
13	0	0	0	0	514	510	
14	0	0	0	0	515	511	
15	0	0	0	0	517	512	
0	0	0	0	0	514	513	
1	0	0	0	0	514	515	
2	0	0	0	0	516	511	
3	0	0	0	0	516	510	
4	0	0	0	0	515	511	
5	0	0	0	0	514	512	
6	0	0	0	0	511	514	
7	0	0	0	0	510	516	
8	0	0	0	0	508	512	
9	0	0	0	0	504	511	
10	0	0	0	0	505	511	
11	0	0	0	0	504	508	
12	0	0	0	0	506	512	
13	0	0	0	0	507	511	
14	0	0	0	0	508	508	
15	0	0	0	0	508	511	
0	0	0	0	0	508	509	
1	0	0	0	0	509	512	
2	0	0	0	0	508	510	
3	0	0	0	0	507	509	
4	0	0	0	0	507	511	
5	0	0	0	0	512	512	
6	0	0	0	0	511	510	
7	0	0	0	0	512	512	
8	0	0	0	0	512	513	
9	0	0	0	0	511	512	
10	0	0	0	0	511	513	
11	0	0	0	0	512	513	
12	0	0	0	0	512	510	
13	0	0	0	0	512	510	
14	0	0	0	0	515	510	
15	0	0	0	0	515	509	
0	0	0	0	0	513	509	
1	0	0	0	0	510	511	
2	0	0	0	0	511	509	
3	0	0	0	0	509	509	
4	0	0	0	0	506	508	
5	0	0	0	0	511	510	
6	0	0	0	0	514	509	
7	0	0	0	0	513	511	
8	0	0	0	0	513	509	
9	0	0	0	0	513	511	
10	0	0	0	0	511	511	
11	0	0	0	0	508	510	
12	0	0	0	0	505	509	
13	0	0	0	0	504	510	
14	0	0	0	0	507	511	
15	0	0	0	0	511	510	
0	0	0	0	0	510	510	
1	0	0	0	0	510	509	
2	0	0	0	0	511	511	
3	0	0	0	0	510	508	
4	0	0	0	0	511	508	
5	0	0	0	0	508	510	
6	0	0	0	0	508	510	
7	0	0	0	0	507	512	
8	0	0	0	0	508	508	
9	0	0	0	0	512	510	
10	0	0	0	0	511	513	
11	0	0	0	0	513	513	
12	0	0	0	0	513	510	
13	0	0	0	0	513	508	
14	0	0	0	0	513	509	
15	0	0	0	0	514	510	
0	0	0	0	0	512	511	
1	0	0	0	0	515	510	
2	0	0	0	0	513	510	
3	0	0	0	0	509	511	
4	0	0	0	0	507	512	
5	0	0	0	0	510	511	
6	0	0	0	0	515	510	
7	0	0	0	0	514	511	
8	0	0	0	0	513	509	
9	0	0	0	0	513	509	
10	0	0	0	0	512	512	
11	0	0	0	0	509	510	
12	0	0	0	0	507	509	
13	0	0	0	0	507	512	
14	0	0	0	0	505	510	
15	0	0	0	0	504	510	
0	0	0	0	0	510	512	
1	0	0	0	0	510	511	
2	0	0	0	0	511	510	
3	0	0	0	0	508	509	
4	0	0	0	0	510	507	
5	0	0	0	0	511	511	
6	0	0	0	0	513	511	
7	0	0	0	0	512	512	
8	0	0	0	0	512	510	
9	0	0	0	0	513	510	
10	0	0	0	0	511	510	
11	0	0	0	0	509	511	
12	0	0	0	0	513	508	
13	0	0	0	0	512	508	
14	0	0	0	0	511	508	
15	0	0	0	0	510	513	
0	0	0	0	0	511	509	
1	0	0	0	0	512	509	
2	0	0	0	0	511	510	
3	0	0	0	0	512	510	
4	0	0	0	0	513	509	
5	0	0	0	0	511	510	
6	0	0	0	0	512	508	
7	0	0	0	0	512	511	
8	0	0	0	0	510	508	
9	0	0	0	0	512	511	
10	0	0	0	0	511	512	
11	0	0	0	0	511	510	
12	0	0	0	0	511	512	
13	0	0	0	0	508	512	
14	0	0	0	0	509	510	
15	0	0	0	0	509	510	
0	0	0	0	0	512	511	
1	0	0	0	0	513	510	
2	0	0	0	0	511	510	
3	0	0	0	0	508	508	
4	0	0	0	0	510	508	
5	0	0	0	0	509	509	
6	0	0	0	0	506	510	
7	0	0	0	0	507	512	
8	0	0	0	0	506	515	
9	0	0	0	0	510	511	
10	0	0	0	0	514	509	
11	0	0	0	0	516	512	
12	0	0	0	0	514	512	
13	0	0	0	0	513	512	
14	0	0	0	0	510	509	
15	0	0	0	0	512	509	
0	0	0	0	0	511	511	
1	0	0	0	0	507	511	
2	0	0	0	0	507	510	
3	0	0	0	0	504	509	
4	0	0	0	0	504	511	
5	0	0	0	0	511	510	
6	0	0	0	0	513	510	
7	0	0	0	0	512	511	
8	0	0	0	0	515	511	
9	0	0	0	0	511	510	
10	0	0	0	0	510	511	
11	0	0	0	0	513	509	
12	0	0	0	0	515	507	
13	0	0	0	0	514	508	
14	0	0	0	0	513	512	
15	0	0	0	0	512	507	
0	0	0	0	0	511	511	
1	0	0	0	0	512	509	
2	0	0	0	0	509	508	
3	0	0	0	0	508	508	
4	0	0	0	0	507	512	
5	0	0	0	0	511	509	
6	0	0	0	0	512	509	
7	0	0	0	0	508	510	
8	0	0	0	0	507	509	
9	0	0	0	0	510	510	
10	0	0	0	0	511	511	
11	0	0	0	0	513	510	
12	0	0	0	0	511	510	
13	0	0	0	0	508	511	
14	0	0	0	0	510	512	
15	0	0	0	0	513	511	
0	0	0	0	0	511	514	
1	0	0	0	0	511	513	
2	0	0	0	0	511	509	
3	0	0	0	0	511	510	
4	0	0	0	0	513	511	
5	0	0	0	0	515	511	
6	0	0	0	0	515	511	
7	0	0	0	0	513	511	
8	0	0	0	0	513	511	
9	0	0	0	0	513	512	
10	0	0	0	0	512	512	
11	0	0	0	0	509	512	
12	0	0	0	0	505	512	
13	0	0	0	0	503	511	
14	0	0	0	0	507	509	
15	0	0	0	0	506	509	
0	0	0	0	0	503	512	
1	0	0	0	0	507	510	
2	0	0	0	0	504	511	
3	0	0	0	0	505	510	
4	0	0	0	0	515	510	
5	0	0	0	0	513	510	
6	0	0	0	0	516	508	
7	0	0	0	0	514	508	
8	0	0	0	0	515	509	
9	0	0	0	0	513	511	
10	0	0	0	0	511	510	
11	0	0	0	0	511	510	
12	0	0	0	0	512	509	
13	0	0	0	0	513	509	
14	0	0	0	0	519	511	
15	0	0	0	0	519	510	
0	0	0	0	0	525	509	
1	0	0	0	0	524	509	
2	0	0	0	0	520	510	
3	0	0	0	0	512	511	
4	0	0	0	0	504	509	
5	0	0	0	0	497	510	
6	0	0	0	0	494	510	
7	0	0	0	0	495	511	
8	0	0	0	0	498	511	
9	0	0	0	0	499	508	
10	0	0	0	0	498	509	
11	0	0	0	0	507	511	
12	0	0	0	0	508	511	
13	0	0	0	0	509	511	
14	0	0	0	0	512	510	
15	0	0	0	0	512	508	
0	0	0	0	0	511	510	
1	0	0	0	0	512	510	
2	0	0	0	0	509	510	
3	0	0	0	0	513	512	
4	0	0	0	0	513	509	
5	0	0	0	0	514	509	
6	0	0	0	0	514	510	
7	0	0	0	0	514	512	
8	0	0	0	0	513	512	
9	0	0	0	0	510	508	
10	0	0	0	0	512	510	
11	0	0	0	0	512	511	
12	0	0	0	0	513	513	
13	0	0	0	0	513	510	
14	0	0	0	0	515	512	
15	0	0	0	0	511	511	
0	0	0	0	0	514	511	
1	0	0	0	0	513	510	
2	0	0	0	0	514	509	
3	0	0	0	0	513	510	
4	0	0	0	0	512	509	
5	0	0	0	0	511	508	
6	0	0	0	0	511	509	
7	0	0	0	0	510	510	
8	0	0	0	0	512	508	
9	0	0	0	0	511	513	
10	0	0	0	0	512	512	
11	0	0	0	0	511	512	
12	0	0	0	0	511	509	
13	0	0	0	0	514	512	
14	0	0	0	0	510	511	
15	0	0	0	0	512	510	
0	0	0	0	0	513	510	
1	0	0	0	0	513	512	
2	0	0	0	0	513	513	
3	0	0	0	0	511	511	
4	0	0	0	0	510	510	
5	0	0	0	0	508	509	
6	0	0	0	0	508	511	
7	0	0	0	0	510	511	
8	0	0	0	0	510	510	
9	0	0	0	0	505	511	
10	0	0	0	0	509	509	
11	0	0	0	0	511	509	
12	0	0	0	0	515	509	
13	0	0	0	0	514	513	
14	0	0	0	0	512	511	
15	0	0	0	0	511	510	
0	0	0	0	0	508	510	
1	0	0	0	0	506	510	
2	0	0	0	0	504	510	
3	0	0	0	0	504	509	
4	0	0	0	0	505	510	
5	0	0	0	0	507	509	
6	0	0	0	0	507	508	
7	0	0	0	0	509	509	
8	0	0	0	0	513	512	
9	0	0	0	0	512	512	
10	0	0	0	0	511	513	
11	0	0	0	0	511	508	
12	0	0	0	0	511	510	
13	0	0	0	0	512	511	
14	0	0	0	0	511	511	
15	0	0	0	0	512	509	
0	0	0	0	0	513	508	
1	0	0	0	0	512	510	
2	0	0	0	0	513	512	
3	0	0	0	0	512	510	
4	0	0	0	0	512	508	
5	0	0	0	0	511	510	
6	0	0	0	0	511	511	
7	0	0	0	0	512	510	
8	0	0	0	0	511	511	
9	0	0	0	0	511	514	
10	0	0	0	0	511	512	
11	0	0	0	0	512	511	
12	0	0	0	0	513	510	
13	0	0	0	0	509	509	
14	0	0	0	0	509	506	
15	0	0	0	0	509	506	
0	0	0	0	0	511	507	
1	0	0	0	0	510	508	
2	0	0	0	0	513	511	
3	0	0	0	0	513	511	
4	0	0	0	0	512	512	
5	0	0	0	0	511	510	
6	0	0	0	0	511	510	
7	0	0	0	0	510	509	
8	0	0	0	0	508	510	
9	0	0	0	0	508	511	
10	0	0	0	0	509	511	
11	0	0	0	0	512	512	
12	0	0	0	0	512	513	
13	0	0	0	0	512	510	
14	0	0	0	0	516	511	
15	0	0	0	0	511	510	
0	0	0	0	0	511	511	
1	0	0	0	0	510	510	
2	0	0	0	0	509	510	
3	0	0	0	0	510	511	
4	0	0	0	0	507	510	
5	0	0	0	0	506	510	
6	0	0	0	0	508	511	
7	0	0	0	0	511	511	
8	0	0	0	0	513	511	
9	0	0	0	0	511	511	
10	0	0	0	0	511	510	
11	0	0	0	0	513	510	
12	0	0	0	0	510	508	
13	0	0	0	0	511	508	
14	0	0	0	0	509	511	
15	0	0	0	0	506	509	
0	0	0	0	0	506	511	
1	0	0	0	0	509	510	
2	0	0	0	0	508	512	
3	0	0	0	0	510	508	
4	0	0	0	0	508	511	
5	0	0	0	0	513	512	
6	0	0	0	0	515	512	
7	0	0	0	0	516	510	
8	0	0	0	0	515	510	
9	0	0	0	0	512	509	
10	0	0	0	0	513	510	
11	0	0	0	0	510	509	
12	0	0	0	0	509	510	
13	0	0	0	0	509	511	
14	0	0	0	0	511	510	
15	0	0	0	0	514	511	
0	0	0	0	0	514	511	
1	0	0	0	0	511	510	
2	0	0	0	0	508	511	
3	0	0	0	0	509	509	
4	0	0	0	0	508	510	
5	0	0	0	0	508	512	
6	0	0	0	0	508	511	
7	0	0	0	0	510	511	
8	0	0	0	0	508	510	
9	0	0	0	0	509	511	
10	0	0	0	0	507	508	
11	0	0	0	0	512	507	
12	0	0	0	0	512	510	
13	0	0	0	0	510	511	
14	0	0	0	0	509	512	
15	0	0	0	0	511	510	
0	0	0	0	0	513	512	
1	0	0	0	0	515	513	
2	0	0	0	0	514	511	
3	0	0	0	0	515	511	
4	0	0	0	0	515	510	
5	0	0	0	0	514	512	
6	0	0	0	0	513	510	
7	0	0	0	0	508	509	
8	0	0	0	0	509	508	
9	0	0	0	0	506	510	
10	0	0	0	0	506	510	
11	0	0	0	0	505	508	
12	0	0	0	0	508	509	
13	0	0	0	0	510	508	
14	0	0	0	0	510	511	
15	0	0	0	0	510	510	
0	0	0	0	0	508	514	
1	0	0	0	0	508	512	
2	0	0	0	0	510	511	
3	0	0	0	0	513	511	
4	0	0	0	0	513	511	
5	0	0	0	0	516	509	
6	0	0	0	0	514	509	
7	0	0	0	0	515	511	
8	0	0	0	0	512	511	
9	0	0	0	0	511	510	
10	0	0	0	0	510	510	
11	0	0	0	0	507	509	
12	0	0	0	0	509	508	
13	0	0	0	0	509	509	
14	0	0	0	0	511	510	
15	0	0	0	0	513	510	
0	0	0	0	0	511	511	
1	0	0	0	0	512	511	
2	0	0	0	0	511	511	
3	0	0	0	0	511	513	
4	0	0	0	0	510	510	
5	0	0	0	0	506	509	
6	0	0	0	0	507	509	
7	0	0	0	0	509	510	
8	0	0	0	0	511	511	
9	0	0	0	0	512	510	
10	0	0	0	0	510	510	
11	0	0	0	0	512	510	
12	0	0	0	0	511	511	
13	0	0	0	0	511	512	
14	0	0	0	0	510	512	
15	0	0	0	0	510	510	
0	0	0	0	0	511	511	
1	0	0	0	0	508	513	
2	0	0	0	0	512	508	
3	0	0	0	0	512	509	
4	0	0	0	0	511	510	
5	0	0	0	0	510	509	
6	0	0	0	0	512	512	
7	0	0	0	0	511	510	
8	0	0	0	0	513	508	
9	0	0	0	0	513	507	
10	0	0	0	0	511	510	
11	0	0	0	0	511	509	
12	0	0	0	0	512	510	
13	0	0	0	0	511	512	
14	0	0	0	0	513	511	
15	0	0	0	0	512	509	
0	0	0	0	0	510	508	
1	0	0	0	0	510	510	
2	0	0	0	0	509	511	
3	0	0	0	0	507	508	
4	0	0	0	0	508	509	
5	0	0	0	0	507	511	
6	0	0	0	0	511	512	
7	0	0	0	0	512	512	
8	0	0	0	0	510	513	
9	0	0	0	0	511	511	
10	0	0	0	0	509	511	
11	0	0	0	0	510	510	
12	0	0	0	0	508	513	
13	0	0	0	0	505	512	
14	0	0	0	0	504	511	
15	0	0	0	0	505	510	
0	0	0	0	0	509	507	
1	0	0	0	0	511	509	
2	0	0	0	0	513	508	
3	0	0	0	0	513	509	
4	0	0	0	0	512	509	
5	0	0	0	0	513	510	
6	0	0	0	0	512	512	
7	0	0	0	0	515	511	
8	0	0	0	0	515	510	
9	0	0	0	0	516	510	
10	0	0	0	0	519	509	
11	0	0	0	0	523	508	
12	0	0	0	0	518	511	
13	0	0	0	0	517	510	
14	0	0	0	0	511	510	
15	0	0	0	0	508	510	
0	0	0	0	0	502	510	
1	0	0	0	0	502	510	
2	0	0	0	0	503	510	
3	0	0	0	0	502	511	
4	0	0	0	0	505	512	
5	0	0	0	0	505	512	
6	0	0	0	0	510	512	
7	0	0	0	0	513	511	
8	0	0	0	0	512	510	
9	0	0	0	0	513	511	
10	0	0	0	0	510	513	
11	0	0	0	0	506	510	
12	0	0	0	0	508	512	
13	0	0	0	0	511	511	
14	0	0	0	0	508	511	
15	0	0	0	0	511	508	
0	0	0	0	0	512	510	
1	0	0	0	0	509	511	
2	0	0	0	0	509	511	
3	0	0	0	0	510	508	
4	0	0	0	0	511	509	
5	0	0	0	0	513	511	
6	0	0	0	0	512	509	
7	0	0	0	0	512	511	
8	0	0	0	0	514	511	
9	0	0	0	0	512	511	
10	0	0	0	0	510	511	
11	0	0	0	0	513	510	
12	0	0	0	0	512	509	
13	0	0	0	0	513	507	
14	0	0	0	0	512	508	
15	0	0	0	0	513	508	
0	0	0	0	0	515	509	
1	0	0	0	0	514	510	
2	0	0	0	0	511	510	
3	0	0	0	0	511	510	
4	0	0	0	0	509	512	
5	0	0	0	0	511	512	
6	0	0	0	0	511	510	
7	0	0	0	0	510	510	
8	0	0	0	0	510	509	
9	0	0	0	0	513	510	
10	0	0	0	0	510	510	
11	0	0	0	0	508	510	
12	0	0	0	0	508	512	
13	0	0	0	0	506	509	
14	0	0	0	0	509	509	
15	0	0	0	0	510	510	
0	0	0	0	0	505	510	
1	0	0	0	0	509	511	
2	0	0	0	0	511	513	
3	0	0	0	0	509	511	
4	0	0	0	0	512	508	
5	0	0	0	0	511	509	
6	0	0	0	0	511	510	
7	0	0	0	0	511	510	
8	0	0	0	0	511	508	
9	0	0	0	0	510	509	
10	0	0	0	0	510	511	
11	0	0	0	0	509	511	
12	0	0	0	0	510	511	
13	0	0	0	0	510	512	
14	0	0	0	0	511	510	
15	0	0	0	0	512	510	
0	0	0	0	0	515	509	
1	0	0	0	0	516	510	
2	0	0	0	0	514	510	
3	0	0	0	0	513	509	
4	0	0	0	0	512	510	
5	0	0	0	0	510	509	
6	0	0	0	0	509	510	
7	0	0	0	0	508	511	
8	0	0	0	0	513	509	
9	0	0	0	0	512	512	
10	0	0	0	0	513	509	
11	0	0	0	0	510	512	
12	0	0	0	0	508	512	
13	0	0	0	0	508	511	
14	0	0	0	0	507	511	
15	0	0	0	0	505	511	
0	0	0	0	0	506	510	
1	0	0	0	0	504	508	
2	0	0	0	0	508	512	
3	0	0	0	0	510	511	
4	0	0	0	0	513	509	
5	0	0	0	0	512	506	
6	0	0	0	0	515	508	
7	0	0	0	0	514	508	
8	0	0	0	0	515	507	
9	0	0	0	0	514	507	
10	0	0	0	0	512	509	
11	0	0	0	0	511	511	
12	0	0	0	0	515	511	
13	0	0	0	0	516	512	
14	0	0	0	0	512	511	
15	0	0	0	0	505	510	
0	0	0	0	0	504	512	
1	0	0	0	0	502	511	
2	0	0	0	0	504	510	
3	0	0	0	0	506	510	
4	0	0	0	0	508	511	
5	0	0	0	0	509	509	
6	0	0	0	0	511	511	
7	0	0	0	0	516	512	
8	0	0	0	0	519	511	
9	0	0	0	0	516	511	
10	0	0	0	0	516	513	
11	0	0	0	0	513	510	
12	0	0	0	0	510	512	
13	0	0	0	0	510	514	
14	0	0	0	0	505	511	
15	0	0	0	0	508	512	
0	0	0	0	0	508	511	
1	0	0	0	0	506	512	
2	0	0	0	0	508	512	
3	0	0	0	0	508	511	
4	0	0	0	0	509	510	
5	0	0	0	0	510	507	
6	0	0	0	0	513	510	
7	0	0	0	0	513	512	
8	0	0	0	0	512	511	
9	0	0	0	0	515	510	
10	0	0	0	0	515	514	
11	0	0	0	0	515	512	
12	0	0	0	0	513	512	
13	0	0	0	0	512	512	
14	0	0	0	0	512	510	
15	0	0	0	0	512	512	
0	0	0	0	0	511	512	
1	0	0	0	0	511	511	
2	0	0	0	0	507	510	
3	0	0	0	0	507	506	
4	0	0	0	0	506	506	
5	0	0	0	0	509	507	
6	0	0	0	0	509	506	
7	0	0	0	0	507	507	
8	0	0	0	0	507	504	
9	0	0	0	0	509	507	
10	0	0	0	0	510	505	
11	0	0	0	0	513	506	
12	0	0	0	0	513	505	
13	0	0	0	0	512	506	
14	0	0	0	0	513	509	
15	0	0	0	0	513	506	
0	0	0	0	0	510	507	
1	0	0	0	0	511	507	
2	0	0	0	0	512	507	
3	0	0	0	0	513	511	
4	0	0	0	0	513	512	
5	0	0	0	0	513	511	
6	0	0	0	0	514	515	
7	0	0	0	0	511	513	
8	0	0	0	0	513	515	
9	0	0	0	0	511	511	
10	0	0	0	0	512	510	
11	0	0	0	0	511	512	
12	0	0	0	0	512	511	
13	0	0	0	0	510	511	
14	0	0	0	0	508	513	
15	0	0	0	0	509	515	
0	0	0	0	0	508	513	
1	0	0	0	0	507	512	
2	0	0	0	0	510	512	
3	0	0	0	0	510	513	
4	0	0	0	0	510	513	
5	0	0	0	0	509	511	
6	0	0	0	0	510	510	
7	0	0	0	0	512	512	
8	0	0	0	0	513	512	
9	0	0	0	0	513	512	
10	0	0	0	0	514	510	
11	0	0	0	0	511	509	
12	0	0	0	0	509	511	
13	0	0	0	0	508	509	
14	0	0	0	0	508	509	
15	0	0	0	0	508	507	
0	0	0	0	0	507	508	
1	0	0	0	0	507	508	
2	0	0	0	0	508	509	
3	0	0	0	0	510	511	
4	0	0	0	0	511	511	
5	0	0	0	0	511	511	
6	0	0	0	0	510	513	
7	0	0	0	0	511	510	
8	0	0	0	0	512	508	
9	0	0	0	0	511	509	
10	0	0	0	0	511	510	
11	0	0	0	0	514	511	
12	0	0	0	0	513	509	
13	0	0	0	0	515	507	
14	0	0	0	0	511	509	
15	0	0	0	0	510	510	
0	0	0	0	0	512	511	
1	0	0	0	0	510	511	
2	0	0	0	0	508	510	
3	0	0	0	0	508	509	
4	0	0	0	0	508	510	
5	0	0	0	0	510	511	
6	0	0	0	0	510	511	
7	0	0	0	0	510	511	
8	0	0	0	0	511	510	
9	0	0	0	0	509	512	
10	0	0	0	0	513	512	
11	0	0	0	0	512	510	
12	0	0	0	0	512	509	
13	0	0	0	0	512	512	
14	0	0	0	0	513	511	
15	0	0	0	0	515	510	
0	0	0	0	0	518	510	
1	0	0	0	0	517	511	
2	0	0	0	0	513	511	
3	0	0	0	0	510	511	
4	0	0	0	0	511	511	
5	0	0	0	0	506	511	
6	0	0	0	0	499	511	
7	0	0	0	0	498	511	
8	0	0	0	0	496	509	
9	0	0	0	0	499	510	
10	0	0	0	0	507	510	
11	0	0	0	0	511	512	
12	0	0	0	0	514	513	
13	0	0	0	0	515	510	
14	0	0	0	0	515	511	
15	0	0	0	0	512	511	
0	0	0	0	0	513	510	
1	0	0	0	0	512	508	
2	0	0	0	0	510	509	
3	0	0	0	0	512	511	
4	0	0	0	0	514	512	
5	0	0	0	0	512	511	
6	0	0	0	0	513	510	
7	0	0	0	0	514	510	
8	0	0	0	0	514	511	
9	0	0	0	0	515	510	
10	0	0	0	0	512	507	
11	0	0	0	0	512	507	
12	0	0	0	0	511	509	
13	0	0	0	0	513	511	
14	0	0	0	0	513	513	
15	0	0	0	0	512	514	
0	0	0	0	0	511	510	
1	0	0	0	0	511	509	
2	0	0	0	0	510	513	
3	0	0	0	0	509	511	
4	0	0	0	0	508	510	
5	0	0	0	0	510	507	
6	0	0	0	0	510	507	
7	0	0	0	0	509	505	
8	0	0	0	0	508	508	
9	0	0	0	0	511	510	
10	0	0	0	0	510	506	
11	0	0	0	0	513	509	
12	0	0	0	0	512	513	
13	0	0	0	0	511	510	
14	0	0	0	0	512	510	
15	0	0	0	0	513	513	
0	0	0	0	0	509	512	
1	0	0	0	0	509	511	
2	0	0	0	0	508	509	
3	0	0	0	0	509	512	
4	0	0	0	0	509	513	
5	0	0	0	0	509	512	
6	0	0	0	0	511	511	
7	0	0	0	0	510	512	
8	0	0	0	0	511	511	
9	0	0	0	0	511	512	
10	0	0	0	0	511	510	
11	0	0	0	0	511	508	
12	0	0	0	0	512	508	
13	0	0	0	0	512	510	
14	0	0	0	0	512	508	
15	0	0	0	0	510	508	
0	0	0	0	0	512	509	
1	0	0	0	0	513	509	
2	0	0	0	0	513	511	
3	0	0	0	0	512	508	
4	0	0	0	0	508	510	
5	0	0	0	0	511	510	
6	0	0	0	0	510	511	
7	0	0	0	0	511	511	
8	0	0	0	0	508	510	
9	0	0	0	0	509	508	
10	0	0	0	0	510	515	
11	0	0	0	0	506	513	
12	0	0	0	0	510	509	
13	0	0	0	0	515	512	
14	0	0	0	0	513	511	
15	0	0	0	0	515	510	
0	0	0	0	0	511	511	
1	0	0	0	0	511	513	
2	0	0	0	0	511	512	
3	0	0	0	0	511	510	
4	0	0	0	0	511	510	
5	0	0	0	0	510	511	
6	0	0	0	0	510	511	
7	0	0	0	0	509	511	
8	0	0	0	0	511	509	
9	0	0	0	0	509	511	
10	0	0	0	0	510	510	
11	0	0	0	0	509	510	
12	0	0	0	0	511	509	
13	0	0	0	0	512	508	
14	0	0	0	0	511	511	
15	0	0	0	0	510	509	
0	0	0	0	0	512	511	
1	0	0	0	0	512	511	
2	0	0	0	0	511	511	
3	0	0	0	0	510	513	
4	0	0	0	0	511	510	
5	0	0	0	0	513	509	
6	0	0	0	0	512	507	
7	0	0	0	0	512	508	
8	0	0	0	0	511	510	
9	0	0	0	0	513	511	
10	0	0	0	0	511	511	
11	0	0	0	0	511	511	
12	0	0	0	0	511	511	
13	0	0	0	0	512	512	
14	0	0	0	0	512	511	
15	0	0	0	0	511	511	
0	0	0	0	0	508	511	
1	0	0	0	0	510	508	
2	0	0	0	0	508	510	
3	0	0	0	0	507	511	
4	0	0	0	0	506	511	
5	0	0	0	0	508	512	
6	0	0	0	0	508	512	
7	0	0	0	0	512	512	
8	0	0	0	0	512	510	
9	0	0	0	0	513	507	
10	0	0	0	0	516	507	
11	0	0	0	0	519	508	
12	0	0	0	0	516	508	
13	0	0	0	0	512	510	
14	0	0	0	0	509	510	
15	0	0	0	0	507	511	
0	0	0	0	0	506	511	
1	0	0	0	0	509	510	
2	0	0	0	0	509	508	
3	0	0	0	0	506	512	
4	0	0	0	0	505	510	
5	0	0	0	0	507	510	
6	0	0	0	0	510	510	
7	0	0	0	0	508	512	
8	0	0	0	0	508	510	
9	0	0	0	0	508	511	
10	0	0	0	0	511	512	
11	0	0	0	0	509	511	
12	0	0	0	0	508	510	
13	0	0	0	0	510	510	
14	0	0	0	0	508	512	
15	0	0	0	0	509	510	
0	0	0	0	0	511	508	
1	0	0	0	0	513	509	
2	0	0	0	0	511	511	
3	0	0	0	0	518	509	
4	0	0	0	0	519	510	
5	0	0	0	0	516	511	
6	0	0	0	0	514	511	
7	0	0	0	0	514	510	
8	0	0	0	0	514	510	
9	0	0	0	0	515	509	
10	0	0	0	0	511	510	
11	0	0	0	0	512	512	
12	0	0	0	0	511	510	
13	0	0	0	0	512	510	
14	0	0	0	0	510	509	
15	0	0	0	0	510	511	
0	0	0	0	0	507	511	
1	0	0	0	0	507	511	
2	0	0	0	0	507	512	
3	0	0	0	0	504	511	
4	0	0	0	0	504	514	
5	0	0	0	0	507	511	
6	0	0	0	0	508	513	
7	0	0	0	0	508	507	
8	0	0	0	0	509	507	
9	0	0	0	0	510	507	
10	0	0	0	0	511	508	
11	0	0	0	0	512	505	
12	0	0	0	0	513	508	
13	0	0	0	0	510	509	
14	0	0	0	0	511	510	
15	0	0	0	0	515	510	
0	0	0	0	0	515	510	
1	0	0	0	0	514	510	
2	0	0	0	0	515	508	
3	0	0	0	0	512	511	
4	0	0	0	0	511	513	
5	0	0	0	0	510	511	
6	0	0	0	0	510	512	
7	0	0	0	0	510	513	
8	0	0	0	0	507	512	
9	0	0	0	0	504	512	
10	0	0	0	0	507	511	
11	0	0	0	0	510	509	
12	0	0	0	0	512	508	
13	0	0	0	0	513	510	
14	0	0	0	0	512	508	
15	0	0	0	0	511	511	
0	0	0	0	0	512	510	
1	0	0	0	0	512	510	
2	0	0	0	0	512	511	
3	0	0	0	0	512	510	
4	0	0	0	0	511	511	
5	0	0	0	0	510	508	
6	0	0	0	0	512	510	
7	0	0	0	0	516	512	
8	0	0	0	0	517	511	
9	0	0	0	0	515	511	
10	0	0	0	0	512	511	
11	0	0	0	0	510	508	
12	0	0	0	0	507	508	
13	0	0	0	0	509	511	
14	0	0	0	0	505	512	
15	0	0	0	0	504	508	
0	0	0	0	0	506	507	
1	0	0	0	0	504	509	
2	0	0	0	0	507	511	
3	0	0	0	0	511	510	
4	0	0	0	0	512	510	
5	0	0	0	0	511	509	
6	0	0	0	0	511	510	
7	0	0	0	0	511	510	
8	0	0	0	0	511	510	
9	0	0	0	0	512	512	
10	0	0	0	0	513	510	
11	0	0	0	0	512	513	
12	0	0	0	0	511	511	
13	0	0	0	0	511	512	
14	0	0	0	0	512	513	
15	0	0	0	0	513	512	
0	0	0	0	0	512	511	
1	0	0	0	0	510	508	
2	0	0	0	0	508	510	
3	0	0	0	0	508	509	
4	0	0	0	0	512	508	
5	0	0	0	0	511	509	
6	0	0	0	0	512	508	
7	0	0	0	0	512	508	
8	0	0	0	0	515	510	
9	0	0	0	0	517	513	
10	0	0	0	0	517	512	
11	0	0	0	0	514	512	
12	0	0	0	0	511	510	
13	0	0	0	0	509	511	
14	0	0	0	0	507	513	
15	0	0	0	0	504	510	
0	0	0	0	0	503	510	
1	0	0	0	0	504	514	
2	0	0	0	0	505	510	
3	0	0	0	0	507	508	
4	0	0	0	0	507	510	
5	0	0	0	0	508	509	
6	0	0	0	0	510	510	
7	0	0	0	0	512	510	
8	0	0	0	0	512	508	
9	0	0	0	0	513	510	
10	0	0	0	0	516	511	
11	0	0	0	0	519	511	
12	0	0	0	0	519	511	
13	0	0	0	0	519	511	
14	0	0	0	0	513	510	
15	0	0	0	0	511	511	
0	0	0	0	0	505	511	
1	0	0	0	0	501	511	
2	0	0	0	0	498	510	
3	0	0	0	0	495	512	
4	0	0	0	0	503	511	
5	0	0	0	0	506	512	
6	0	0	0	0	510	510	
7	0	0	0	0	514	509	
8	0	0	0	0	518	511	
9	0	0	0	0	519	511	
10	0	0	0	0	515	511	
11	0	0	0	0	516	512	
12	0	0	0	0	514	511	
13	0	0	0	0	513	511	
14	0	0	0	0	511	510	
15	0	0	0	0	509	513	
0	0	0	0	0	506	513	
1	0	0	0	0	508	510	
2	0	0	0	0	508	510	
3	0	0	0	0	509	508	
4	0	0	0	0	511	510	
5	0	0	0	0	511	509	
6	0	0	0	0	512	507	
7	0	0	0	0	513	507	
8	0	0	0	0	513	508	
9	0	0	0	0	512	509	
10	0	0	0	0	514	511	
11	0	0	0	0	513	511	
12	0	0	0	0	511	512	
13	0	0	0	0	512	513	
14	0	0	0	0	513	515	
15	0	0	0	0	512	513	
0	0	0	0	0	514	511	
1	0	0	0	0	516	509	
2	0	0	0	0	514	509	
3	0	0	0	0	512	511	
4	0	0	0	0	511	511	
5	0	0	0	0	511	511	
6	0	0	0	0	511	511	
7	0	0	0	0	509	512	
8	0	0	0	0	507	511	
9	0	0	0	0	507	510	
10	0	0	0	0	504	510	
11	0	0	0	0	504	511	
12	0	0	0	0	508	511	
13	0	0	0	0	508	510	
14	0	0	0	0	505	510	
15	0	0	0	0	508	509	
0	0	0	0	0	509	510	
1	0	0	0	0	511	510	
2	0	0	0	0	514	511	
3	0	0	0	0	515	510	
4	0	0	0	0	516	510	
5	0	0	0	0	515	511	
6	0	0	0	0	513	511	
7	0	0	0	0	512	511	
8	0	0	0	0	512	511	
9	0	0	0	0	511	508	
10	0	0	0	0	511	510	
11	0	0	0	0	512	513	
12	0	0	0	0	507	512	
13	0	0	0	0	506	511	
14	0	0	0	0	507	511	
15	0	0	0	0	509	511	
0	0	0	0	0	508	511	
1	0	0	0	0	510	510	
2	0	0	0	0	508	511	
3	0	0	0	0	514	511	
4	0	0	0	0	512	514	
5	0	0	0	0	511	511	
6	0	0	0	0	510	511	
7	0	0	0	0	512	510	
8	0	0	0	0	512	510	
9	0	0	0	0	513	510	
10	0	0	0	0	514	510	
11	0	0	0	0	513	510	
12	0	0	0	0	514	511	
13	0	0	0	0	513	512	
14	0	0	0	0	515	511	
15	0	0	0	0	512	509	
0	0	0	0	0	508	511	
1	0	0	0	0	508	510	
2	0	0	0	0	505	508	
3	0	0	0	0	506	509	
4	0	0	0	0	504	509	
5	0	0	0	0	505	510	
6	0	0	0	0	508	509	
7	0	0	0	0	511	510	
8	0	0	0	0	511	509	
9	0	0	0	0	511	510	
10	0	0	0	0	506	510	
11	0	0	0	0	505	512	
12	0	0	0	0	504	509	
13	0	0	0	0	505	512	
14	0	0	0	0	510	511	
15	0	0	0	0	510	512	
0	0	0	0	0	513	512	
1	0	0	0	0	514	512	
2	0	0	0	0	514	510	
3	0	0	0	0	519	510	
4	0	0	0	0	519	510	
5	0	0	0	0	518	509	
6	0	0	0	0	515	508	
7	0	0	0	0	512	510	
8	0	0	0	0	511	510	
9	0	0	0	0	507	512	
10	0	0	0	0	506	511	
11	0	0	0	0	505	512	
12	0	0	0	0	504	510	
13	0	0	0	0	507	510	
14	0	0	0	0	512	512	
15	0	0	0	0	518	511	
0	0	0	0	0	519	511	
1	0	0	0	0	515	510	
2	0	0	0	0	514	511	
3	0	0	0	0	511	508	
4	0	0	0	0	513	509	
5	0	0	0	0	509	511	
6	0	0	0	0	508	511	
7	0	0	0	0	506	510	
8	0	0	0	0	507	511	
9	0	0	0	0	509	510	
10	0	0	0	0	510	510	
11	0	0	0	0	509	511	
12	0	0	0	0	509	510	
13	0	0	0	0	510	509	
14	0	0	0	0	510	509	
15	0	0	0	0	506	507	
0	0	0	0	0	505	511	
1	0	0	0	0	509	510	
2	0	0	0	0	511	509	
3	0	0	0	0	512	510	
4	0	0	0	0	512	510	
5	0	0	0	0	511	509	
6	0	0	0	0	512	509	
7	0	0	0	0	514	511	
8	0	0	0	0	513	511	
9	0	0	0	0	513	511	
10	0	0	0	0	512	510	
11	0	0	0	0	511	508	
12	0	0	0	0	510	508	
13	0	0	0	0	512	512	
14	0	0	0	0	512	510	
15	0	0	0	0	512	510	
0	0	0	0	0	512	510	
1	0	0	0	0	508	511	
2	0	0	0	0	509	508	
3	0	0	0	0	511	511	
4	0	0	0	0	511	510	
5	0	0	0	0	509	510	
6	0	0	0	0	510	510	
7	0	0	0	0	510	512	
8	0	0	0	0	510	511	
9	0	0	0	0	511	511	
10	0	0	0	0	509	509	
11	0	0	0	0	511	510	
12	0	0	0	0	512	508	
13	0	0	0	0	513	511	
14	0	0	0	0	514	511	
15	0	0	0	0	512	511	
0	0	0	0	0	513	513	
1	0	0	0	0	510	512	
2	0	0	0	0	511	509	
3	0	0	0	0	511	511	
4	0	0	0	0	508	510	
5	0	0	0	0	503	508	
6	0	0	0	0	507	508	
7	0	0	0	0	508	510	
8	0	0	0	0	511	512	
9	0	0	0	0	513	512	
10	0	0	0	0	519	513	
11	0	0	0	0	518	509	
12	0	0	0	0	518	511	
13	0	0	0	0	515	511	
14	0	0	0	0	512	509	
15	0	0	0	0	511	509	
0	0	0	0	0	505	509	
1	0	0	0	0	503	511	
2	0	0	0	0	502	511	
3	0	0	0	0	502	511	
4	0	0	0	0	504	511	
5	0	0	0	0	508	510	
6	0	0	0	0	510	511	
7	0	0	0	0	509	510	
8	0	0	0	0	511	511	
9	0	0	0	0	513	512	
10	0	0	0	0	513	509	
11	0	0	0	0	514	508	
12	0	0	0	0	513	509	
13	0	0	0	0	514	509	
14	0	0	0	0	515	510	
15	0	0	0	0	511	511	
0	0	0	0	0	513	510	
1	0	0	0	0	514	512	
2	0	0	0	0	511	511	
3	0	0	0	0	508	512	
4	0	0	0	0	505	510	
5	0	0	0	0	504	510	
6	0	0	0	0	504	509	
7	0	0	0	0	504	510	
8	0	0	0	0	507	510	
9	0	0	0	0	510	512	
10	0	0	0	0	512	510	
11	0	0	0	0	517	510	
12	0	0	0	0	518	507	
13	0	0	0	0	515	510	
14	0	0	0	0	511	510	
15	0	0	0	0	510	512	
0	0	0	0	0	511	511	
1	0	0	0	0	511	512	
2	0	0	0	0	509	510	
3	0	0	0	0	507	510	
4	0	0	0	0	509	510	
5	0	0	0	0	508	510	
6	0	0	0	0	509	511	
7	0	0	0	0	512	510	
8	0	0	0	0	514	510	
9	0	0	0	0	513	509	
10	0	0	0	0	514	510	
11	0	0	0	0	513	509	
12	0	0	0	0	512	511	
13	0	0	0	0	508	512	
14	0	0	0	0	506	511	
15	0	0	0	0	513	511	
0	0	0	0	0	513	512	
1	0	0	0	0	513	511	
2	0	0	0	0	513	507	
3	0	0	0	0	512	508	
4	0	0	0	0	510	511	
5	0	0	0	0	508	513	
6	0	0	0	0	508	512	
7	0	0	0	0	508	510	
8	0	0	0	0	506	509	
9	0	0	0	0	507	511	
10	0	0	0	0	511	509	
11	0	0	0	0	511	508	
12	0	0	0	0	513	508	
13	0	0	0	0	513	508	
14	0	0	0	0	514	509	
15	0	0	0	0	514	509	
0	0	0	0	0	512	509	
1	0	0	0	0	512	510	
2	0	0	0	0	511	512	
3	0	0	0	0	510	511	
4	0	0	0	0	509	512	
5	0	0	0	0	511	511	
6	0	0	0	0	511	512	
7	0	0	0	0	511	513	
8	0	0	0	0	511	512	
9	0	0	0	0	508	512	
10	0	0	0	0	510	512	
11	0	0	0	0	509	509	
12	0	0	0	0	509	507	
13	0	0	0	0	512	507	
14	0	0	0	0	511	510	
15	0	0	0	0	509	511	
0	0	0	0	0	513	511	
1	0	0	0	0	516	513	
2	0	0	0	0	515	514	
3	0	0	0	0	512	512	
4	0	0	0	0	512	513	
5	0	0	0	0	510	514	
6	0	0	0	0	511	510	
7	0	0	0	0	504	510	
8	0	0	0	0	502	510	
9	0	0	0	0	501	513	
10	0	0	0	0	502	512	
11	0	0	0	0	504	513	
12	0	0	0	0	510	512	
13	0	0	0	0	512	514	
14	0	0	0	0	515	513	
15	0	0	0	0	512	511	
0	0	0	0	0	515	511	
1	0	0	0	0	516	511	
2	0	0	0	0	513	511	
3	0	0	0	0	512	510	
4	0	0	0	0	513	508	
5	0	0	0	0	515	511	
6	0	0	0	0	514	508	
7	0	0	0	0	513	510	
8	0	0	0	0	512	508	
9	0	0	0	0	511	507	
10	0	0	0	0	508	506	
11	0	0	0	0	508	502	
12	0	0	0	0	508	503	
13	0	0	0	0	508	507	
14	0	0	0	0	508	507	
15	0	0	0	0	510	508	
0	0	0	0	0	512	505	
1	0	0	0	0	510	506	
2	0	0	0	0	511	505	
3	0	0	0	0	511	505	
4	0	0	0	0	510	503	
5	0	0	0	0	509	504	
6	0	0	0	0	511	509	
7	0	0	0	0	512	509	
8	0	0	0	0	515	513	
9	0	0	0	0	514	513	
10	0	0	0	0	515	514	
11	0	0	0	0	513	515	
12	0	0	0	0	513	514	
13	0	0	0	0	513	516	
14	0	0	0	0	511	514	
15	0	0	0	0	511	515	
0	0	0	0	0	509	514	
1	0	0	0	0	507	515	
2	0	0	0	0	509	514	
3	0	0	0	0	507	512	
4	0	0	0	0	507	512	
5	0	0	0	0	507	512	
6	0	0	0	0	510	509	
7	0	0	0	0	511	510	
8	0	0	0	0	511	508	
9	0	0	0	0	512	510	
10	0	0	0	0	513	511	
11	0	0	0	0	513	512	
12	0	0	0	0	511	510	
13	0	0	0	0	509	512	
14	0	0	0	0	509	513	
15	0	0	0	0	508	513	
0	0	0	0	0	506	511	
1	0	0	0	0	507	511	
2	0	0	0	0	511	509	
3	0	0	0	0	510	511	
4	0	0	0	0	511	511	
5	0	0	0	0	511	511	
6	0	0	0	0	512	512	
7	0	0	0	0	512	510	
8	0	0	0	0	513	511	
9	0	0	0	0	513	510	
10	0	0	0	0	510	511	
11	0	0	0	0	505	511	
12	0	0	0	0	507	511	
13	0	0	0	0	509	510	
14	0	0	0	0	511	510	
15	0	0	0	0	512	509	
0	0	0	0	0	514	509	
1	0	0	0	0	516	507	
2	0	0	0	0	515	506	
3	0	0	0	0	514	509	
4	0	0	0	0	511	510	
5	0	0	0	0	511	511	
6	0	0	0	0	506	512	
7	0	0	0	0	507	512	
8	0	0	0	0	508	513	
9	0	0	0	0	508	511	
10	0	0	0	0	511	511	
11	0	0	0	0	510	509	
12	0	0	0	0	510	511	
13	0	0	0	0	509	512	
14	0	0	0	0	505	513	
15	0	0	0	0	506	511	
0	0	0	0	0	512	508	
1	0	0	0	0	512	508	
2	0	0	0	0	513	509	
3	0	0	0	0	511	509	
4	0	0	0	0	515	510	
5	0	0	0	0	516	511	
6	0	0	0	0	519	511	
7	0	0	0	0	516	511	
8	0	0	0	0	515	509	
9	0	0	0	0	511	510	
10	0	0	0	0	506	511	
11	0	0	0	0	504	511	
12	0	0	0	0	501	508	
13	0	0	0	0	502	508	
14	0	0	0	0	503	510	
15	0	0	0	0	506	511	
0	0	0	0	0	509	510	
1	0	0	0	0	514	510	
2	0	0	0	0	513	512	
3	0	0	0	0	513	511	
4	0	0	0	0	512	513	
5	0	0	0	0	514	510	
6	0	0	0	0	513	508	
7	0	0	0	0	511	509	
8	0	0	0	0	511	510	
9	0	0	0	0	511	510	
10	0	0	0	0	511	511	
11	0	0	0	0	512	511	
12	0	0	0	0	512	510	
13	0	0	0	0	512	510	
14	0	0	0	0	513	510	
15	0	0	0	0	511	511	
0	0	0	0	0	510	511	
1	0	0	0	0	510	511	
2	0	0	0	0	512	511	
3	0	0	0	0	513	510	
4	0	0	0	0	511	510	
5	0	0	0	0	515	512	
6	0	0	0	0	512	511	
7	0	0	0	0	510	510	
8	0	0	0	0	511	508	
9	0	0	0	0	508	508	
10	0	0	0	0	507	508	
11	0	0	0	0	509	511	
12	0	0	0	0	508	511	
13	0	0	0	0	510	509	
14	0	0	0	0	509	510	
15	0	0	0	0	510	509	
0	0	0	0	0	508	511	
1	0	0	0	0	507	513	
2	0	0	0	0	509	510	
3	0	0	0	0	513	510	
4	0	0	0	0	511	510	
5	0	0	0	0	511	510	
6	0	0	0	0	514	508	
7	0	0	0	0	511	511	
8	0	0	0	0	512	508	
9	0	0	0	0	512	509	
10	0	0	0	0	512	510	
11	0	0	0	0	512	512	
12	0	0	0	0	511	510	
13	0	0	0	0	515	511	
14	0	0	0	0	511	512	
15	0	0	0	0	508	512	
0	0	0	0	0	510	513	
1	0	0	0	0	507	511	
2	0	0	0	0	507	510	
3	0	0	0	0	509	510	
4	0	0	0	0	508	510	
5	0	0	0	0	510	510	
6	0	0	0	0	509	512	
7	0	0	0	0	510	511	
8	0	0	0	0	511	510	
9	0	0	0	0	513	510	
10	0	0	0	0	510	510	
11	0	0	0	0	511	510	
12	0	0	0	0	511	510	
13	0	0	0	0	510	511	
14	0	0	0	0	512	510	
15	0	0	0	0	511	511	
0	0	0	0	0	510	508	
1	0	0	0	0	512	508	
2	0	0	0	0	512	512	
3	0	0	0	0	514	512	
4	0	0	0	0	513	510	
5	0	0	0	0	515	511	
6	0	0	0	0	513	511	
7	0	0	0	0	513	509	
8	0	0	0	0	511	512	
9	0	0	0	0	508	508	
10	0	0	0	0	505	507	
11	0	0	0	0	506	509	
12	0	0	0	0	508	510	
13	0	0	0	0	504	511	
14	0	0	0	0	505	513	
15	0	0	0	0	507	512	
0	0	0	0	0	511	510	
1	0	0	0	0	514	509	
2	0	0	0	0	511	510	
3	0	0	0	0	512	509	
4	0	0	0	0	513	510	
5	0	0	0	0	512	512	
6	0	0	0	0	513	509	
7	0	0	0	0	514	511	
8	0	0	0	0	510	510	
9	0	0	0	0	511	510	
10	0	0	0	0	509	511	
11	0	0	0	0	509	509	
12	0	0	0	0	512	510	
13	0	0	0	0	510	512	
14	0	0	0	0	512	513	
15	0	0	0	0	512	511	
0	0	0	0	0	512	509	
1	0	0	0	0	512	509	
2	0	0	0	0	511	509	
3	0	0	0	0	511	511	
4	0	0	0	0	511	510	
5	0	0	0	0	510	509	
6	0	0	0	0	511	509	
7	0	0	0	0	511	509	
8	0	0	0	0	511	511	
9	0	0	0	0	509	510	
10	0	0	0	0	512	510	
11	0	0	0	0	511	508	
12	0	0	0	0	509	511	
13	0	0	0	0	511	511	
14	0	0	0	0	511	511	
15	0	0	0	0	510	510	
0	0	0	0	0	510	511	
1	0	0	0	0	509	510	
2	0	0	0	0	508	511	
3	0	0	0	0	507	511	
4	0	0	0	0	508	510	
5	0	0	0	0	509	512	
6	0	0	0	0	511	511	
7	0	0	0	0	512	510	
8	0	0	0	0	512	514	
9	0	0	0	0	512	510	
10	0	0	0	0	515	511	
11	0	0	0	0	513	510	
12	0	0	0	0	512	510	
13	0	0	0	0	512	512	
14	0	0	0	0	512	510	
15	0	0	0	0	512	508	
0	0	0	0	0	513	509	
1	0	0	0	0	515	511	
2	0	0	0	0	513	510	
3	0	0	0	0	510	509	
4	0	0	0	0	511	511	
5	0	0	0	0	509	508	
6	0	0	0	0	511	508	
7	0	0	0	0	512	510	
8	0	0	0	0	511	511	
9	0	0	0	0	505	513	
10	0	0	0	0	511	509	
11	0	0	0	0	513	509	
12	0	0	0	0	510	506	
13	0	0	0	0	509	508	
14	0	0	0	0	508	508	
15	0	0	0	0	509	510	
0	0	0	0	0	510	512	
1	0	0	0	0	510	511	
2	0	0	0	0	511	509	
3	0	0	0	0	509	511	
4	0	0	0	0	505	511	
5	0	0	0	0	504	512	
6	0	0	0	0	511	510	
7	0	0	0	0	510	511	
8	0	0	0	0	510	511	
9	0	0	0	0	508	510	
10	0	0	0	0	507	508	
11	0	0	0	0	509	510	
12	0	0	0	0	508	509	
13	0	0	0	0	511	512	
14	0	0	0	0	512	511	
15	0	0	0	0	513	510	
0	0	0	0	0	513	511	
1	0	0	0	0	514	507	
2	0	0	0	0	516	508	
3	0	0	0	0	514	510	
4	0	0	0	0	512	510	
5	0	0	0	0	514	511	
6	0	0	0	0	513	512	
7	0	0	0	0	513	510	
8	0	0	0	0	513	510	
9	0	0	0	0	509	508	
10	0	0	0	0	505	510	
11	0	0	0	0	504	512	
12	0	0	0	0	508	511	
13	0	0	0	0	508	512	
14	0	0	0	0	506	509	
15	0	0	0	0	508	512	
0	0	0	0	0	509	512	
1	0	0	0	0	509	512	
2	0	0	0	0	510	511	
3	0	0	0	0	511	511	
4	0	0	0	0	511	510	
5	0	0	0	0	512	512	
6	0	0	0	0	511	513	
7	0	0	0	0	511	509	
8	0	0	0	0	511	510	
9	0	0	0	0	511	510	
10	0	0	0	0	511	510	
11	0	0	0	0	513	511	
12	0	0	0	0	509	509	
13	0	0	0	0	508	509	
14	0	0	0	0	511	508	
15	0	0	0	0	513	511	
0	0	0	0	0	515	511	
1	0	0	0	0	512	510	
2	0	0	0	0	515	511	
3	0	0	0	0	513	510	
4	0	0	0	0	511	510	
5	0	0	0	0	509	510	
6	0	0	0	0	511	510	
7	0	0	0	0	511	510	
8	0	0	0	0	512	510	
9	0	0	0	0	508	510	
10	0	0	0	0	512	509	
11	0	0	0	0	512	509	
12	0	0	0	0	511	510	
13	0	0	0	0	510	511	
14	0	0	0	0	511	510	
15	0	0	0	0	509	511	
0	0	0	0	0	509	510	
1	0	0	0	0	511	510	
2	0	0	0	0	511	511	
3	0	0	0	0	510	511	
4	0	0	0	0	507	511	
5	0	0	0	0	505	510	
6	0	0	0	0	509	510	
7	0	0	0	0	507	511	
8	0	0	0	0	511	510	
9	0	0	0	0	513	510	
10	0	0	0	0	513	510	
11	0	0	0	0	514	510	
12	0	0	0	0	513	510	
13	0	0	0	0	512	511	
14	0	0	0	0	512	510	
15	0	0	0	0	515	509	
0	0	0	0	0	510	508	
1	0	0	0	0	506	513	
2	0	0	0	0	508	511	
3	0	0	0	0	507	510	
4	0	0	0	0	510	510	
5	0	0	0	0	507	508	
6	0	0	0	0	509	510	
7	0	0	0	0	511	511	
8	0	0	0	0	513	511	
9	0	0	0	0	516	511	
10	0	0	0	0	515	512	
11	0	0	0	0	511	510	
12	0	0	0	0	510	511	
13	0	0	0	0	511	510	
14	0	0	0	0	510	509	
15	0	0	0	0	511	510	
0	0	0	0	0	508	510	
1	0	0	0	0	507	510	
2	0	0	0	0	506	511	
3	0	0	0	0	510	509	
4	0	0	0	0	512	510	
5	0	0	0	0	512	510	
6	0	0	0	0	510	511	
7	0	0	0	0	509	510	
8	0	0	0	0	508	510	
9	0	0	0	0	507	511	
10	0	0	0	0	508	510	
11	0	0	0	0	509	510	
12	0	0	0	0	512	511	
13	0	0	0	0	510	511	
14	0	0	0	0	512	511	
15	0	0	0	0	512	510	
0	0	0	0	0	512	509	
1	0	0	0	0	512	509	
2	0	0	0	0	510	509	
3	0	0	0	0	510	511	
4	0	0	0	0	507	509	
5	0	0	0	0	510	508	
6	0	0	0	0	511	511	
7	0	0	0	0	512	510	
8	0	0	0	0	513	511	
9	0	0	0	0	510	511	
10	0	0	0	0	511	509	
11	0	0	0	0	513	509	
12	0	0	0	0	511	509	
13	0	0	0	0	511	511	
14	0	0	0	0	511	510	
15	0	0	0	0	511	509	
0	0	0	0	0	511	510	
1	0	0	0	0	514	510	
2	0	0	0	0	514	509	
3	0	0	0	0	513	509	
4	0	0	0	0	511	509	
5	0	0	0	0	510	511	
6	0	0	0	0	510	511	
7	0	0	0	0	509	512	
8	0	0	0	0	511	512	
9	0	0	0	0	512	512	
10	0	0	0	0	512	510	
11	0	0	0	0	514	512	
12	0	0	0	0	511	512	
13	0	0	0	0	509	510	
14	0	0	0	0	508	509	
15	0	0	0	0	509	511	
0	0	0	0	0	505	509	
1	0	0	0	0	508	510	
2	0	0	0	0	507	510	
3	0	0	0	0	508	511	
4	0	0	0	0	509	513	
5	0	0	0	0	511	510	
6	0	0	0	0	513	508	
7	0	0	0	0	512	511	
8	0	0	0	0	511	509	
9	0	0	0	0	510	511	
10	0	0	0	0	511	511	
11	0	0	0	0	513	510	
12	0	0	0	0	509	509	
13	0	0	0	0	511	511	
14	0	0	0	0	510	512	
15	0	0	0	0	511	508	
0	0	0	0	0	511	510	
1	0	0	0	0	509	511	
2	0	0	0	0	511	510	
3	0	0	0	0	513	510	
4	0	0	0	0	510	510	
5	0	0	0	0	513	509	
6	0	0	0	0	511	509	
7	0	0	0	0	510	508	
8	0	0	0	0	511	508	
9	0	0	0	0	512	509	
10	0	0	0	0	513	510	
11	0	0	0	0	511	511	
12	0	0	0	0	511	510	
13	0	0	0	0	510	510	
14	0	0	0	0	510	510	
15	0	0	0	0	512	511	
0	0	0	0	0	512	512	
1	0	0	0	0	511	512	
2	0	0	0	0	512	510	
3	0	0	0	0	512	512	
4	0	0	0	0	509	511	
5	0	0	0	0	511	511	
6	0	0	0	0	511	510	
7	0	0	0	0	510	509	
8	0	0	0	0	511	511	
9	0	0	0	0	510	511	
10	0	0	0	0	509	510	
11	0	0	0	0	511	511	
12	0	0	0	0	512	510	
13	0	0	0	0	514	513	
14	0	0	0	0	515	509	
15	0	0	0	0	515	510	
0	0	0	0	0	512	510	
1	0	0	0	0	512	511	
2	0	0	0	0	508	509	
3	0	0	0	0	511	509	
4	0	0	0	0	510	511	
5	0	0	0	0	510	509	
6	0	0	0	0	510	509	
7	0	0	0	0	507	510	
8	0	0	0	0	505	508	
9	0	0	0	0	500	509	
10	0	0	0	0	500	510	
11	0	0	0	0	505	509	
12	0	0	0	0	508	513	
13	0	0	0	0	504	513	
14	0	0	0	0	506	512	
15	0	0	0	0	508	509	
0	0	0	0	0	513	509	
1	0	0	0	0	513	510	
2	0	0	0	0	517	511	
3	0	0	0	0	521	511	
4	0	0	0	0	519	511	
5	0	0	0	0	520	511	
6	0	0	0	0	519	510	
7	0	0	0	0	516	511	
8	0	0	0	0	513	511	
9	0	0	0	0	510	511	
10	0	0	0	0	507	510	
11	0	0	0	0	504	511	
12	0	0	0	0	500	510	
13	0	0	0	0	500	512	
14	0	0	0	0	502	510	
15	0	0	0	0	505	510	
0	0	0	0	0	511	511	
1	0	0	0	0	512	510	
2	0	0	0	0	513	510	
3	0	0	0	0	512	510	
4	0	0	0	0	513	508	
5	0	0	0	0	512	511	
6	0	0	0	0	512	512	
7	0	0	0	0	513	510	
8	0	0	0	0	516	508	
9	0	0	0	0	516	508	
10	0	0	0	0	517	511	
11	0	0	0	0	515	511	
12	0	0	0	0	513	510	
13	0	0	0	0	511	509	
14	0	0	0	0	512	512	
15	0	0	0	0	511	511	
0	0	0	0	0	511	511	
1	0	0	0	0	511	511	
2	0	0	0	0	506	510	
3	0	0	0	0	503	510	
4	0	0	0	0	505	510	
5	0	0	0	0	508	510	
6	0	0	0	0	513	509	
7	0	0	0	0	511	508	
8	0	0	0	0	509	509	
9	0	0	0	0	509	509	
10	0	0	0	0	509	509	
11	0	0	0	0	509	510	
12	0	0	0	0	510	511	
13	0	0	0	0	509	509	
14	0	0	0	0	509	509	
15	0	0	0	0	511	509	
0	0	0	0	0	512	511	
1	0	0	0	0	511	510	
2	0	0	0	0	509	511	
3	0	0	0	0	513	512	
4	0	0	0	0	511	512	
5	0	0	0	0	511	513	
6	0	0	0	0	511	511	
7	0	0	0	0	512	508	
8	0	0	0	0	513	507	
9	0	0	0	0	512	507	
10	0	0	0	0	511	509	
11	0	0	0	0	512	510	
12	0	0	0	0	515	510	
13	0	0	0	0	512	507	
14	0	0	0	0	513	511	
15	0	0	0	0	514	509	
0	0	0	0	0	511	511	
1	0	0	0	0	511	512	
2	0	0	0	0	511	512	
3	0	0	0	0	510	512	
4	0	0	0	0	509	511	
5	0	0	0	0	511	510	
6	0	0	0	0	510	511	
7	0	0	0	0	511	511	
8	0	0	0	0	509	508	
9	0	0	0	0	506	508	
10	0	0	0	0	509	508	
11	0	0	0	0	513	509	
12	0	0	0	0	511	511	
13	0	0	0	0	510	512	
14	0	0	0	0	510	512	
15	0	0	0	0	515	511	
0	0	0	0	0	513	511	
1	0	0	0	0	511	511	
2	0	0	0	0	509	512	
3	0	0	0	0	510	511	
4	0	0	0	0	509	510	
5	0	0	0	0	509	511	
6	0	0	0	0	503	512	
7	0	0	0	0	506	510	
8	0	0	0	0	508	509	
9	0	0	0	0	509	508	
10	0	0	0	0	512	510	
11	0	0	0	0	513	511	
12	0	0	0	0	515	509	
13	0	0	0	0	517	509	
14	0	0	0	0	518	509	
15	0	0	0	0	517	511	
0	0	0	0	0	513	510	
1	0	0	0	0	511	511	
2	0	0	0	0	509	511	
3	0	0	0	0	504	510	
4	0	0	0	0	503	510	
5	0	0	0	0	501	508	
6	0	0	0	0	504	510	
7	0	0	0	0	505	510	
8	0	0	0	0	506	510	
9	0	0	0	0	508	512	
10	0	0	0	0	512	511	
11	0	0	0	0	515	509	
12	0	0	0	0	516	509	
13	0	0	0	0	516	511	
14	0	0	0	0	515	508	
15	0	0	0	0	511	509	
0	0	0	0	0	510	509	
1	0	0	0	0	509	510	
2	0	0	0	0	506	512	
3	0	0	0	0	507	512	
4	0	0	0	0	510	511	
5	0	0	0	0	509	512	
6	0	0	0	0	509	510	
7	0	0	0	0	509	509	
8	0	0	0	0	513	509	
9	0	0	0	0	513	508	
10	0	0	0	0	514	510	
11	0	0	0	0	512	512	
12	0	0	0	0	512	508	
13	0	0	0	0	513	511	
14	0	0	0	0	514	511	
15	0	0	0	0	512	513	
0	0	0	0	0	512	512	
1	0	0	0	0	512	510	
2	0	0	0	0	512	511	
3	0	0	0	0	511	511	
4	0	0	0	0	509	511	
5	0	0	0	0	511	509	
6	0	0	0	0	510	508	
7	0	0	0	0	507	511	
8	0	0	0	0	508	511	
9	0	0	0	0	508	512	
10	0	0	0	0	510	512	
11	0	0	0	0	508	510	
12	0	0	0	0	508	512	
13	0	0	0	0	511	512	
14	0	0	0	0	514	511	
15	0	0	0	0	511	511	
0	0	0	0	0	511	508	
1	0	0	0	0	512	508	
2	0	0	0	0	514	508	
3	0	0	0	0	512	508	
4	0	0	0	0	515	509	
5	0	0	0	0	513	511	
6	0	0	0	0	511	511	
7	0	0	0	0	512	509	
8	0	0	0	0	511	510	
9	0	0	0	0	510	510	
10	0	0	0	0	508	510	
11	0	0	0	0	508	510	
12	0	0	0	0	508	510	
13	0	0	0	0	506	511	
14	0	0	0	0	507	511	
15	0	0	0	0	509	511	
0	0	0	0	0	508	512	
1	0	0	0	0	508	510	
2	0	0	0	0	511	510	
3	0	0	0	0	512	513	
4	0	0	0	0	511	512	
5	0	0	0	0	513	511	
6	0	0	0	0	514	509	
7	0	0	0	0	512	510	
8	0	0	0	0	513	511	
9	0	0	0	0	512	511	
10	0	0	0	0	513	511	
11	0	0	0	0	510	512	
12	0	0	0	0	510	511	
13	0	0	0	0	511	511	
14	0	0	0	0	507	513	
15	0	0	0	0	510	512	
0	0	0	0	0	509	512	
1	0	0	0	0	510	511	
2	0	0	0	0	510	510	
3	0	0	0	0	511	511	
4	0	0	0	0	511	512	
5	0	0	0	0	509	511	
6	0	0	0	0	510	512	
7	0	0	0	0	512	513	
8	0	0	0	0	512	512	
9	0	0	0	0	511	511	
10	0	0	0	0	512	509	
11	0	0	0	0	511	512	
12	0	0	0	0	511	513	
13	0	0	0	0	512	510	
14	0	0	0	0	511	511	
15	0	0	0	0	512	508	
0	0	0	0	0	511	509	
1	0	0	0	0	509	508	
2	0	0	0	0	508	505	
3	0	0	0	0	508	505	
4	0	0	0	0	511	505	
5	0	0	0	0	514	504	
6	0	0	0	0	513	502	
7	0	0	0	0	518	504	
8	0	0	0	0	515	505	
9	0	0	0	0	511	505	
10	0	0	0	0	510	505	
11	0	0	0	0	510	508	
12	0	0	0	0	506	504	
13	0	0	0	0	505	506	
14	0	0	0	0	501	507	
15	0	0	0	0	502	508	
0	0	0	0	0	508	510	
1	0	0	0	0	511	512	
2	0	0	0	0	512	512	
3	0	0	0	0	511	513	
4	0	0	0	0	513	512	
5	0	0	0	0	518	514	
6	0	0	0	0	516	512	
7	0	0	0	0	515	513	
8	0	0	0	0	511	513	
9	0	0	0	0	512	513	
10	0	0	0	0	511	512	
11	0	0	0	0	510	510	
12	0	0	0	0	510	511	
13	0	0	0	0	510	514	
14	0	0	0	0	507	514	
15	0	0	0	0	508	512	
0	0	0	0	0	510	511	
1	0	0	0	0	512	512	
2	0	0	0	0	509	513	
3	0	0	0	0	509	511	
4	0	0	0	0	511	512	
5	0	0	0	0	513	512	
6	0	0	0	0	512	512	
7	0	0	0	0	512	512	
8	0	0	0	0	511	510	
9	0	0	0	0	511	510	
10	0	0	0	0	511	511	
11	0	0	0	0	511	509	
12	0	0	0	0	511	511	
13	0	0	0	0	510	509	
14	0	0	0	0	510	512	
15	0	0	0	0	511	510	
0	0	0	0	0	510	511	
1	0	0	0	0	506	510	
2	0	0	0	0	508	510	
3	0	0	0	0	509	510	
4	0	0	0	0	507	510	
5	0	0	0	0	509	511	
6	0	0	0	0	508	511	
7	0	0	0	0	510	510	
8	0	0	0	0	512	512	
9	0	0	0	0	513	507	
10	0	0	0	0	512	511	
11	0	0	0	0	512	511	
12	0	0	0	0	512	511	
13	0	0	0	0	511	509	
14	0	0	0	0	514	509	
15	0	0	0	0	515	511	
0	0	0	0	0	512	511	
1	0	0	0	0	512	507	
2	0	0	0	0	513	510	
3	0	0	0	0	511	511	
4	0	0	0	0	511	511	
5	0	0	0	0	510	512	
6	0	0	0	0	510	511	
7	0	0	0	0	509	510	
8	0	0	0	0	508	510	
9	0	0	0	0	507	510	
10	0	0	0	0	505	510	
11	0	0	0	0	507	508	
12	0	0	0	0	510	510	
13	0	0	0	0	511	510	
14	0	0	0	0	512	511	
15	0	0	0	0	509	510	
0	0	0	0	0	512	511	
1	0	0	0	0	512	512	
2	0	0	0	0	514	509	
3	0	0	0	0	514	510	
4	0	0	0	0	512	511	
5	0	0	0	0	511	510	
6	0	0	0	0	511	510	
7	0	0	0	0	511	511	
8	0	0	0	0	513	510	
9	0	0	0	0	512	510	
10	0	0	0	0	511	510	
11	0	0	0	0	511	513	
12	0	0	0	0	511	510	
13	0	0	0	0	512	510	
14	0	0	0	0	510	509	
15	0	0	0	0	512	511	
0	0	0	0	0	513	512	
1	0	0	0	0	511	511	
2	0	0	0	0	510	511	
3	0	0	0	0	511	510	
4	0	0	0	0	511	510	
5	0	0	0	0	509	511	
6	0	0	0	0	510	513	
7	0	0	0	0	513	510	
8	0	0	0	0	515	511	
9	0	0	0	0	512	509	
10	0	0	0	0	514	510	
11	0	0	0	0	511	509	
12	0	0	0	0	510	509	
13	0	0	0	0	508	511	
14	0	0	0	0	506	511	
15	0	0	0	0	508	511	
0	0	0	0	0	505	510	
1	0	0	0	0	504	511	
2	0	0	0	0	505	510	
3	0	0	0	0	507	511	
4	0	0	0	0	507	512	
5	0	0	0	0	510	512	
6	0	0	0	0	506	512	
7	0	0	0	0	509	511	
8	0	0	0	0	513	511	
9	0	0	0	0	511	510	
10	0	0	0	0	508	510	
11	0	0	0	0	510	509	
12	0	0	0	0	510	510	
13	0	0	0	0	515	509	
14	0	0	0	0	516	511	
15	0	0	0	0	513	510	
0	0	0	0	0	514	511	
1	0	0	0	0	514	508	
2	0	0	0	0	515	511	
3	0	0	0	0	515	511	
4	0	0	0	0	510	510	
5	0	0	0	0	512	510	
6	0	0	0	0	507	510	
7	0	0	0	0	506	511	
8	0	0	0	0	507	512	
9	0	0	0	0	505	510	
10	0	0	0	0	505	510	
11	0	0	0	0	510	511	
12	0	0	0	0	512	511	
13	0	0	0	0	514	509	
14	0	0	0	0	511	512	
15	0	0	0	0	512	510	
0	0	0	0	0	512	508	
1	0	0	0	0	512	511	
2	0	0	0	0	513	511	
3	0	0	0	0	512	509	
4	0	0	0	0	512	511	
5	0	0	0	0	512	509	
6	0	0	0	0	511	509	
7	0	0	0	0	513	512	
8	0	0	0	0	511	512	
9	0	0	0	0	512	509	
10	0	0	0	0	513	510	
11	0	0	0	0	515	510	
12	0	0	0	0	512	509	
13	0	0	0	0	511	510	
14	0	0	0	0	511	512	
15	0	0	0	0	508	511	
0	0	0	0	0	504	510	
1	0	0	0	0	505	509	
2	0	0	0	0	504	509	
3	0	0	0	0	506	510	
4	0	0	0	0	508	510	
5	0	0	0	0	509	510	
6	0	0	0	0	510	510	
7	0	0	0	0	511	510	
8	0	0	0	0	510	510	
9	0	0	0	0	508	510	
10	0	0	0	0	512	511	
11	0	0	0	0	508	511	
12	0	0	0	0	509	512	
13	0	0	0	0	510	512	
14	0	0	0	0	510	511	
15	0	0	0	0	512	510	
0	0	0	0	0	512	510	
1	0	0	0	0	510	510	
2	0	0	0	0	511	511	
3	0	0	0	0	515	510	
4	0	0	0	0	511	510	
5	0	0	0	0	511	510	
6	0	0	0	0	512	510	
7	0	0	0	0	513	509	
8	0	0	0	0	511	509	
9	0	0	0	0	512	508	
10	0	0	0	0	511	508	
11	0	0	0	0	512	509	
12	0	0	0	0	511	511	
13	0	0	0	0	512	509	
14	0	0	0	0	512	511	
15	0	0	0	0	510	510	
0	0	0	0	0	511	511	
1	0	0	0	0	511	512	
2	0	0	0	0	511	511	
3	0	0	0	0	511	508	
4	0	0	0	0	512	512	
5	0	0	0	0	510	511	
6	0	0	0	0	510	512	
7	0	0	0	0	511	510	
8	0	0	0	0	510	510	
9	0	0	0	0	511	511	
10	0	0	0	0	508	510	
11	0	0	0	0	511	510	
12	0	0	0	0	510	509	
13	0	0	0	0	513	510	
14	0	0	0	0	514	513	
15	0	0	0	0	513	508	
0	0	0	0	0	511	509	
1	0	0	0	0	511	510	
2	0	0	0	0	511	510	
3	0	0	0	0	508	510	
4	0	0	0	0	510	510	
5	0	0	0	0	508	510	
6	0	0	0	0	510	511	
7	0	0	0	0	513	510	
8	0	0	0	0	514	511	
9	0	0	0	0	512	510	
10	0	0	0	0	513	509	
11	0	0	0	0	510	510	
12	0	0	0	0	508	510	
13	0	0	0	0	507	511	
14	0	0	0	0	507	510	
15	0	0	0	0	506	511	
0	0	0	0	0	505	510	
1	0	0	0	0	507	509	
2	0	0	0	0	509	509	
3	0	0	0	0	510	509	
4	0	0	0	0	509	511	
5	0	0	0	0	509	511	
6	0	0	0	0	506	511	
7	0	0	0	0	507	511	
8	0	0	0	0	508	510	
9	0	0	0	0	511	511	
10	0	0	0	0	513	511	
11	0	0	0	0	514	510	
12	0	0	0	0	512	509	
13	0	0	0	0	515	510	
14	0	0	0	0	515	510	
15	0	0	0	0	516	510	
0	0	0	0	0	517	510	
1	0	0	0	0	514	510	
2	0	0	0	0	511	510	
3	0	0	0	0	511	511	
4	0	0	0	0	509	510	
5	0	0	0	0	508	512	
6	0	0	0	0	506	510	
7	0	0	0	0	508	511	
8	0	0	0	0	509	511	
9	0	0	0	0	510	512	
10	0	0	0	0	506	512	
11	0	0	0	0	509	511	
12	0	0	0	0	506	510	
13	0	0	0	0	505	510	
14	0	0	0	0	508	509	
15	0	0	0	0	510	510	
0	0	0	0	0	516	511	
1	0	0	0	0	515	510	
2	0	0	0	0	515	508	
3	0	0	0	0	515	508	
4	0	0	0	0	511	510	
5	0	0	0	0	510	511	
6	0	0	0	0	508	510	
7	0	0	0	0	509	507	
8	0	0	0	0	510	512	
9	0	0	0	0	509	512	
10	0	0	0	0	511	511	
11	0	0	0	0	512	508	
12	0	0	0	0	511	511	
13	0	0	0	0	511	511	
14	0	0	0	0	510	510	
15	0	0	0	0	511	510	
0	0	0	0	0	511	511	
1	0	0	0	0	510	513	
2	0	0	0	0	511	511	
3	0	0	0	0	512	510	
4	0	0	0	0	512	508	
5	0	0	0	0	509	509	
6	0	0	0	0	510	510	
7	0	0	0	0	510	508	
8	0	0	0	0	510	510	
9	0	0	0	0	512	511	
10	0	0	0	0	513	511	
11	0	0	0	0	511	512	
12	0	0	0	0	511	512	
13	0	0	0	0	512	509	
14	0	0	0	0	513	509	
15	0	0	0	0	513	512	
0	0	0	0	0	509	513	
1	0	0	0	0	511	510	
2	0	0	0	0	512	509	
3	0	0	0	0	511	511	
4	0	0	0	0	509	509	
5	0	0	0	0	511	510	
6	0	0	0	0	511	509	
7	0	0	0	0	511	511	
8	0	0	0	0	510	509	
9	0	0	0	0	512	510	
10	0	0	0	0	511	510	
11	0	0	0	0	513	510	
12	0	0	0	0	513	511	
13	0	0	0	0	511	510	
14	0	0	0	0	511	511	
15	0	0	0	0	510	511	
0	0	0	0	0	510	511	
1	0	0	0	0	509	511	
2	0	0	0	0	508	510	
3	0	0	0	0	509	508	
4	0	0	0	0	512	509	
5	0	0	0	0	512	511	
6	0	0	0	0	512	510	
7	0	0	0	0	512	509	
8	0	0	0	0	510	510	
9	0	0	0	0	509	510	
10	0	0	0	0	509	512	
11	0	0	0	0	513	509	
12	0	0	0	0	512	511	
13	0	0	0	0	509	511	
14	0	0	0	0	508	512	
15	0	0	0	0	507	509	
0	0	0	0	0	506	511	
1	0	0	0	0	506	511	
2	0	0	0	0	502	510	
3	0	0	0	0	502	511	
4	0	0	0	0	502	510	
5	0	0	0	0	506	508	
6	0	0	0	0	508	508	
7	0	0	0	0	513	511	
8	0	0	0	0	517	511	
9	0	0	0	0	515	509	
10	0	0	0	0	514	509	
11	0	0	0	0	513	511	
12	0	0	0	0	512	509	
13	0	0	0	0	515	509	
14	0	0	0	0	514	510	
15	0	0	0	0	514	511	
0	0	0	0	0	513	511	
1	0	0	0	0	512	511	
2	0	0	0	0	509	512	
3	0	0	0	0	511	509	
4	0	0	0	0	509	508	
5	0	0	0	0	510	508	
6	0	0	0	0	508	511	
7	0	0	0	0	510	511	
8	0	0	0	0	509	508	
9	0	0	0	0	509	511	
10	0	0	0	0	512	509	
11	0	0	0	0	512	509	
12	0	0	0	0	514	507	
13	0	0	0	0	514	509	
14	0	0	0	0	513	511	
15	0	0	0	0	511	511	
0	0	0	0	0	513	510	
1	0	0	0	0	510	513	
2	0	0	0	0	508	511	
3	0	0	0	0	511	511	
4	0	0	0	0	508	510	
5	0	0	0	0	508	511	
6	0	0	0	0	509	510	
7	0	0	0	0	509	509	
8	0	0	0	0	511	511	
9	0	0	0	0	511	511	
10	0	0	0	0	512	510	
11	0	0	0	0	513	511	
12	0	0	0	0	513	509	
13	0	0	0	0	512	510	
14	0	0	0	0	512	511	
15	0	0	0	0	511	511	
0	0	0	0	0	513	510	
1	0	0	0	0	512	510	
2	0	0	0	0	511	511	
3	0	0	0	0	510	511	
4	0	0	0	0	509	511	
5	0	0	0	0	511	509	
6	0	0	0	0	511	511	
7	0	0	0	0	511	511	
8	0	0	0	0	511	512	
9	0	0	0	0	510	509	
10	0	0	0	0	509	510	
11	0	0	0	0	510	508	
12	0	0	0	0	511	510	
13	0	0	0	0	510	511	
14	0	0	0	0	510	510	
15	0	0	0	0	512	510	
0	0	0	0	0	514	511	
1	0	0	0	0	511	512	
2	0	0	0	0	512	511	
3	0	0	0	0	510	512	
4	0	0	0	0	510	512	
5	0	0	0	0	511	511	
6	0	0	0	0	510	512	
7	0	0	0	0	513	509	
8	0	0	0	0	512	510	
9	0	0	0	0	510	510	
10	0	0	0	0	512	511	
11	0	0	0	0	511	508	
12	0	0	0	0	508	511	
13	0	0	0	0	509	511	
14	0	0	0	0	509	512	
15	0	0	0	0	511	510	
0	0	0	0	0	511	509	
1	0	0	0	0	510	511	
2	0	0	0	0	510	511	
3	0	0	0	0	509	511	
4	0	0	0	0	508	511	
5	0	0	0	0	509	512	
6	0	0	0	0	511	512	
7	0	0	0	0	512	511	
8	0	0	0	0	511	511	
9	0	0	0	0	510	511	
10	0	0	0	0	510	510	
11	0	0	0	0	510	511	
12	0	0	0	0	511	510	
13	0	0	0	0	512	509	
14	0	0	0	0	513	508	
15	0	0	0	0	511	507	
0	0	0	0	0	511	510	
1	0	0	0	0	511	509	
2	0	0	0	0	512	511	
3	0	0	0	0	510	512	
4	0	0	0	0	510	510	
5	0	0	0	0	509	512	
6	0	0	0	0	510	512	
7	0	0	0	0	511	509	
8	0	0	0	0	511	509	
9	0	0	0	0	511	510	
10	0	0	0	0	513	510	
11	0	0	0	0	511	510	
12	0	0	0	0	512	511	
13	0	0	0	0	513	512	
14	0	0	0	0	511	513	
15	0	0	0	0	510	511	
0	0	0	0	0	511	511	
1	0	0	0	0	513	510	
2	0	0	0	0	512	511	
3	0	0	0	0	513	510	
4	0	0	0	0	507	511	
5	0	0	0	0	503	511	
6	0	0	0	0	504	509	
7	0	0	0	0	505	508	
8	0	0	0	0	503	510	
9	0	0	0	0	508	510	
10	0	0	0	0	505	513	
11	0	0	0	0	508	509	
12	0	0	0	0	510	510	
13	0	0	0	0	513	512	
14	0	0	0	0	515	510	
15	0	0	0	0	515	511	
0	0	0	0	0	512	510	
1	0	0	0	0	513	511	
2	0	0	0	0	513	510	
3	0	0	0	0	516	511	
4	0	0	0	0	517	507	
5	0	0	0	0	514	508	
6	0	0	0	0	513	512	
7	0	0	0	0	511	510	
8	0	0	0	0	508	511	
9	0	0	0	0	506	511	
10	0	0	0	0	506	511	
11	0	0	0	0	502	510	
12	0	0	0	0	506	512	
13	0	0	0	0	509	510	
14	0	0	0	0	508	511	
15	0	0	0	0	511	509	
0	0	0	0	0	513	509	
1	0	0	0	0	513	510	
2	0	0	0	0	513	513	
3	0	0	0	0	511	510	
4	0	0	0	0	512	511	
5	0	0	0	0	511	510	
6	0	0	0	0	511	511	
7	0	0	0	0	512	509	
8	0	0	0	0	511	508	
9	0	0	0	0	512	509	
10	0	0	0	0	515	511	
11	0	0	0	0	514	508	
12	0	0	0	0	516	510	
13	0	0	0	0	512	508	
14	0	0	0	0	513	510	
15	0	0	0	0	511	512	
0	0	0	0	0	506	512	
1	0	0	0	0	505	512	
2	0	0	0	0	506	511	
3	0	0	0	0	506	511	
4	0	0	0	0	508	512	
5	0	0	0	0	508	512	
6	0	0	0	0	510	508	
7	0	0	0	0	511	510	
8	0	0	0	0	510	510	
9	0	0	0	0	511	512	
10	0	0	0	0	512	510	
11	0	0	0	0	513	510	
12	0	0	0	0	511	508	
13	0	0	0	0	512	510	
14	0	0	0	0	513	511	
15	0	0	0	0	511	510	
0	0	0	0	0	512	510	
1	0	0	0	0	515	509	
2	0	0	0	0	514	512	
3	0	0	0	0	513	510	
4	0	0	0	0	511	511	
5	0	0	0	0	512	510	
6	0	0	0	0	512	512	
7	0	0	0	0	512	511	
8	0	0	0	0	511	511	
9	0	0	0	0	507	511	
10	0	0	0	0	508	511	
11	0	0	0	0	507	511	
12	0	0	0	0	508	511	
13	0	0	0	0	511	508	
14	0	0	0	0	508	511	
15	0	0	0	0	505	513	
0	0	0	0	0	508	509	
1	0	0	0	0	509	511	
2	0	0	0	0	511	512	
3	0	0	0	0	513	510	
4	0	0	0	0	514	510	
5	0	0	0	0	513	510	
6	0	0	0	0	512	511	
7	0	0	0	0	514	510	
8	0	0	0	0	513	511	
9	0	0	0	0	516	510	
10	0	0	0	0	518	509	
11	0	0	0	0	514	509	
12	0	0	0	0	515	508	
13	0	0	0	0	511	509	
14	0	0	0	0	507	513	
15	0	0	0	0	506	510	
0	0	0	0	0	504	511	
1	0	0	0	0	500	510	
2	0	0	0	0	500	511	
3	0	0	0	0	506	512	
4	0	0	0	0	511	510	
5	0	0	0	0	513	509	
6	0	0	0	0	511	509	
7	0	0	0	0	511	510	
8	0	0	0	0	512	509	
9	0	0	0	0	512	509	
10	0	0	0	0	514	509	
11	0	0	0	0	511	511	
12	0	0	0	0	508	510	
13	0	0	0	0	508	513	
14	0	0	0	0	508	510	
15	0	0	0	0	511	511	
0	0	0	0	0	509	510	
1	0	0	0	0	511	511	
2	0	0	0	0	509	510	
3	0	0	0	0	510	510	
