# OpenSignals Text File Format. Version 1
# {"98:D3:71:FE:38:C0": {"position": 0, "device": "bitalino_rev", "device name": "98:D3:71:FE:38:C0", "device connection": "BTH98:D3:71:FE:38:C0", "sampling rate": 1000, "resolution": [4, 1, 1, 1, 1, 10, 10], "firmware version": 1282, "comments": "", "keywords": "", "mode": 0, "sync interval": 2, "date": "2026-6-5", "time": "15:46:28.353", "channels": [1, 2], "sensor": ["EMGBITREV", "EMGBITREV"], "label": ["A1", "A2"], "column": ["nSeq", "I1", "I2", "O1", "O2", "A1", "A2"], "special": [{}, {}], "digital IO": [0, 0, 1, 1]}}
# EndOfHeader
0	0	0	0	0	520	520
1	0	0	0	0	517	512
2	0	0	0	0	512	492
3	0	0	0	0	504	483
4	0	0	0	0	497	505
5	0	0	0	0	487	535
6	0	0	0	0	490	557
7	0	0	0	0	489	558
8	0	0	0	0	504	551
9	0	0	0	0	521	527
10	0	0	0	0	537	500
11	0	0	0	0	542	483
12	0	0	0	0	535	479
13	0	0	0	0	523	486
14	0	0	0	0	510	506
15	0	0	0	0	497	525
0	0	0	0	0	482	541
1	0	0	0	0	470	545
2	0	0	0	0	465	541
3	0	0	0	0	479	529
4	0	0	0	0	494	514
5	0	0	0	0	513	499
6	0	0	0	0	521	491
7	0	0	0	0	524	492
8	0	0	0	0	524	494
9	0	0	0	0	521	500
10	0	0	0	0	523	504
11	0	0	0	0	522	508
12	0	0	0	0	520	511
13	0	0	0	0	517	508
14	0	0	0	0	520	510
15	0	0	0	0	522	511
0	0	0	0	0	521	511
1	0	0	0	0	519	510
2	0	0	0	0	514	511
3	0	0	0	0	508	515
4	0	0	0	0	502	509
5	0	0	0	0	504	499
6	0	0	0	0	512	500
7	0	0	0	0	518	507
8	0	0	0	0	520	512
9	0	0	0	0	521	517
10	0	0	0	0	515	514
11	0	0	0	0	508	512
12	0	0	0	0	496	523
13	0	0	0	0	490	527
14	0	0	0	0	482	534
15	0	0	0	0	479	528
0	0	0	0	0	484	530
1	0	0	0	0	498	531
2	0	0	0	0	507	520
3	0	0	0	0	512	512
4	0	0	0	0	514	506
5	0	0	0	0	516	499
6	0	0	0	0	516	499
7	0	0	0	0	516	499
8	0	0	0	0	518	502
9	0	0	0	0	519	504
10	0	0	0	0	520	507
11	0	0	0	0	517	511
12	0	0	0	0	512	511
13	0	0	0	0	509	518
14	0	0	0	0	512	520
15	0	0	0	0	510	516
0	0	0	0	0	512	515
1	0	0	0	0	512	513
2	0	0	0	0	515	509
3	0	0	0	0	517	499
4	0	0	0	0	523	487
5	0	0	0	0	524	481
6	0	0	0	0	523	481
7	0	0	0	0	518	488
8	0	0	0	0	510	499
9	0	0	0	0	499	512
10	0	0	0	0	492	538
11	0	0	0	0	486	556
12	0	0	0	0	481	560
13	0	0	0	0	483	554
14	0	0	0	0	493	547
15	0	0	0	0	504	536
0	0	0	0	0	510	521
1	0	0	0	0	516	511
2	0	0	0	0	516	502
3	0	0	0	0	516	496
4	0	0	0	0	515	495
5	0	0	0	0	514	497
6	0	0	0	0	512	499
7	0	0	0	0	513	503
8	0	0	0	0	513	500
9	0	0	0	0	513	494
10	0	0	0	0	513	496
11	0	0	0	0	513	504
12	0	0	0	0	513	512
13	0	0	0	0	512	515
14	0	0	0	0	512	499
15	0	0	0	0	514	484
0	0	0	0	0	514	474
1	0	0	0	0	516	472
2	0	0	0	0	521	500
3	0	0	0	0	532	524
4	0	0	0	0	541	545
5	0	0	0	0	540	543
6	0	0	0	0	530	550
7	0	0	0	0	516	558
8	0	0	0	0	497	560
9	0	0	0	0	478	556
10	0	0	0	0	463	552
11	0	0	0	0	455	542
12	0	0	0	0	447	530
13	0	0	0	0	463	514
14	0	0	0	0	490	499
15	0	0	0	0	508	495
0	0	0	0	0	515	489
1	0	0	0	0	520	489
2	0	0	0	0	525	489
3	0	0	0	0	525	491
4	0	0	0	0	524	493
5	0	0	0	0	524	495
6	0	0	0	0	521	491
7	0	0	0	0	519	491
8	0	0	0	0	518	499
9	0	0	0	0	519	507
10	0	0	0	0	521	512
11	0	0	0	0	520	505
12	0	0	0	0	520	496
13	0	0	0	0	515	501
14	0	0	0	0	516	510
15	0	0	0	0	514	518
0	0	0	0	0	512	524
1	0	0	0	0	510	531
2	0	0	0	0	508	537
3	0	0	0	0	505	531
4	0	0	0	0	507	518
5	0	0	0	0	503	504
6	0	0	0	0	506	497
7	0	0	0	0	503	486
8	0	0	0	0	507	493
9	0	0	0	0	507	512
10	0	0	0	0	506	532
11	0	0	0	0	506	547
12	0	0	0	0	504	549
13	0	0	0	0	506	540
14	0	0	0	0	510	531
15	0	0	0	0	510	522
0	0	0	0	0	508	509
1	0	0	0	0	510	499
2	0	0	0	0	509	499
3	0	0	0	0	509	501
4	0	0	0	0	510	503
5	0	0	0	0	512	503
6	0	0	0	0	512	503
7	0	0	0	0	510	496
8	0	0	0	0	511	481
9	0	0	0	0	512	458
10	0	0	0	0	513	460
11	0	0	0	0	511	481
12	0	0	0	0	510	510
13	0	0	0	0	510	510
14	0	0	0	0	511	537
15	0	0	0	0	513	572
0	0	0	0	0	508	587
1	0	0	0	0	507	583
2	0	0	0	0	509	561
3	0	0	0	0	511	542
4	0	0	0	0	510	527
5	0	0	0	0	509	512
6	0	0	0	0	509	497
7	0	0	0	0	508	483
8	0	0	0	0	510	471
9	0	0	0	0	514	464
10	0	0	0	0	520	446
11	0	0	0	0	520	454
12	0	0	0	0	517	483
13	0	0	0	0	514	510
14	0	0	0	0	512	510
15	0	0	0	0	510	500
0	0	0	0	0	502	521
1	0	0	0	0	492	545
2	0	0	0	0	487	560
3	0	0	0	0	494	559
4	0	0	0	0	511	557
5	0	0	0	0	524	555
6	0	0	0	0	525	530
7	0	0	0	0	520	507
8	0	0	0	0	516	506
9	0	0	0	0	509	515
10	0	0	0	0	505	531
11	0	0	0	0	498	538
12	0	0	0	0	488	539
13	0	0	0	0	488	529
14	0	0	0	0	497	516
15	0	0	0	0	505	504
0	0	0	0	0	509	489
1	0	0	0	0	510	484
2	0	0	0	0	510	484
3	0	0	0	0	504	488
4	0	0	0	0	510	492
5	0	0	0	0	518	492
6	0	0	0	0	523	498
7	0	0	0	0	524	501
8	0	0	0	0	524	499
9	0	0	0	0	515	498
10	0	0	0	0	513	503
11	0	0	0	0	509	508
12	0	0	0	0	503	512
13	0	0	0	0	500	514
14	0	0	0	0	507	510
15	0	0	0	0	510	512
0	0	0	0	0	518	515
1	0	0	0	0	529	512
2	0	0	0	0	533	504
3	0	0	0	0	531	508
4	0	0	0	0	522	510
5	0	0	0	0	518	515
6	0	0	0	0	510	521
7	0	0	0	0	498	512
8	0	0	0	0	484	494
9	0	0	0	0	478	491
10	0	0	0	0	473	492
11	0	0	0	0	480	488
12	0	0	0	0	491	496
13	0	0	0	0	500	527
14	0	0	0	0	508	559
15	0	0	0	0	515	581
0	0	0	0	0	518	584
1	0	0	0	0	522	568
2	0	0	0	0	526	548
3	0	0	0	0	528	524
4	0	0	0	0	527	504
5	0	0	0	0	523	491
6	0	0	0	0	519	492
7	0	0	0	0	515	492
8	0	0	0	0	514	494
9	0	0	0	0	509	494
10	0	0	0	0	503	497
11	0	0	0	0	498	499
12	0	0	0	0	503	506
13	0	0	0	0	509	503
14	0	0	0	0	515	501
15	0	0	0	0	515	505
0	0	0	0	0	512	501
1	0	0	0	0	511	486
2	0	0	0	0	513	479
3	0	0	0	0	508	488
4	0	0	0	0	508	506
5	0	0	0	0	501	522
6	0	0	0	0	500	536
7	0	0	0	0	501	536
8	0	0	0	0	504	544
9	0	0	0	0	509	540
10	0	0	0	0	512	534
11	0	0	0	0	513	528
12	0	0	0	0	511	521
13	0	0	0	0	517	521
14	0	0	0	0	518	523
15	0	0	0	0	523	524
0	0	0	0	0	527	522
1	0	0	0	0	535	514
2	0	0	0	0	544	505
3	0	0	0	0	551	502
4	0	0	0	0	542	496
5	0	0	0	0	526	486
6	0	0	0	0	501	491
7	0	0	0	0	481	500
8	0	0	0	0	462	508
9	0	0	0	0	448	515
10	0	0	0	0	446	521
11	0	0	0	0	451	522
12	0	0	0	0	461	518
13	0	0	0	0	473	515
14	0	0	0	0	493	509
15	0	0	0	0	512	504
0	0	0	0	0	521	506
1	0	0	0	0	527	508
2	0	0	0	0	534	511
3	0	0	0	0	536	507
4	0	0	0	0	537	505
5	0	0	0	0	544	500
6	0	0	0	0	545	507
7	0	0	0	0	543	513
8	0	0	0	0	536	516
9	0	0	0	0	524	516
10	0	0	0	0	512	515
11	0	0	0	0	499	518
12	0	0	0	0	490	519
13	0	0	0	0	478	515
14	0	0	0	0	476	516
15	0	0	0	0	486	519
0	0	0	0	0	497	524
1	0	0	0	0	503	526
2	0	0	0	0	515	521
3	0	0	0	0	525	512
4	0	0	0	0	528	512
5	0	0	0	0	527	513
6	0	0	0	0	522	505
7	0	0	0	0	518	505
8	0	0	0	0	514	504
9	0	0	0	0	511	503
10	0	0	0	0	509	506
11	0	0	0	0	507	504
12	0	0	0	0	504	494
13	0	0	0	0	509	497
14	0	0	0	0	510	508
15	0	0	0	0	510	519
0	0	0	0	0	505	522
1	0	0	0	0	503	515
2	0	0	0	0	499	516
3	0	0	0	0	502	520
4	0	0	0	0	504	511
5	0	0	0	0	506	499
6	0	0	0	0	510	493
7	0	0	0	0	512	500
8	0	0	0	0	511	512
9	0	0	0	0	512	531
10	0	0	0	0	509	548
11	0	0	0	0	511	555
12	0	0	0	0	513	553
13	0	0	0	0	511	547
14	0	0	0	0	513	532
15	0	0	0	0	512	518
0	0	0	0	0	514	503
1	0	0	0	0	513	495
2	0	0	0	0	513	493
3	0	0	0	0	511	495
4	0	0	0	0	512	492
5	0	0	0	0	511	484
6	0	0	0	0	511	486
7	0	0	0	0	510	490
8	0	0	0	0	511	491
9	0	0	0	0	510	476
10	0	0	0	0	509	481
11	0	0	0	0	508	506
12	0	0	0	0	512	536
13	0	0	0	0	522	544
14	0	0	0	0	530	548
15	0	0	0	0	548	540
0	0	0	0	0	559	530
1	0	0	0	0	556	523
2	0	0	0	0	540	503
3	0	0	0	0	510	491
4	0	0	0	0	472	488
5	0	0	0	0	444	501
6	0	0	0	0	426	511
7	0	0	0	0	419	525
8	0	0	0	0	426	536
9	0	0	0	0	447	546
10	0	0	0	0	476	553
11	0	0	0	0	505	555
12	0	0	0	0	531	547
13	0	0	0	0	543	530
14	0	0	0	0	545	501
15	0	0	0	0	543	492
0	0	0	0	0	534	491
1	0	0	0	0	528	495
2	0	0	0	0	522	502
3	0	0	0	0	526	511
4	0	0	0	0	529	511
5	0	0	0	0	526	509
6	0	0	0	0	527	499
7	0	0	0	0	537	499
8	0	0	0	0	543	499
9	0	0	0	0	551	502
10	0	0	0	0	554	499
11	0	0	0	0	546	504
12	0	0	0	0	534	503
13	0	0	0	0	510	499
14	0	0	0	0	484	491
15	0	0	0	0	455	492
0	0	0	0	0	438	504
1	0	0	0	0	441	518
2	0	0	0	0	450	529
3	0	0	0	0	461	536
4	0	0	0	0	483	535
5	0	0	0	0	508	529
6	0	0	0	0	542	524
7	0	0	0	0	573	519
8	0	0	0	0	576	513
9	0	0	0	0	576	508
10	0	0	0	0	552	506
11	0	0	0	0	518	508
12	0	0	0	0	486	510
13	0	0	0	0	478	509
14	0	0	0	0	473	508
15	0	0	0	0	467	507
0	0	0	0	0	458	508
1	0	0	0	0	456	507
2	0	0	0	0	457	506
3	0	0	0	0	470	508
4	0	0	0	0	472	512
5	0	0	0	0	486	502
6	0	0	0	0	492	491
7	0	0	0	0	499	488
8	0	0	0	0	515	502
9	0	0	0	0	530	515
10	0	0	0	0	542	507
11	0	0	0	0	544	512
12	0	0	0	0	559	529
13	0	0	0	0	582	543
14	0	0	0	0	588	550
15	0	0	0	0	585	552
0	0	0	0	0	570	547
1	0	0	0	0	544	541
2	0	0	0	0	510	519
3	0	0	0	0	477	513
4	0	0	0	0	454	504
5	0	0	0	0	435	494
6	0	0	0	0	434	486
7	0	0	0	0	448	492
8	0	0	0	0	469	503
9	0	0	0	0	502	517
10	0	0	0	0	521	528
11	0	0	0	0	537	528
12	0	0	0	0	541	525
13	0	0	0	0	540	514
14	0	0	0	0	538	496
15	0	0	0	0	532	456
0	0	0	0	0	524	437
1	0	0	0	0	520	457
2	0	0	0	0	515	483
3	0	0	0	0	504	516
4	0	0	0	0	503	540
5	0	0	0	0	505	553
6	0	0	0	0	506	563
7	0	0	0	0	508	573
8	0	0	0	0	512	564
9	0	0	0	0	511	543
10	0	0	0	0	512	531
11	0	0	0	0	512	527
12	0	0	0	0	510	525
13	0	0	0	0	508	499
14	0	0	0	0	508	484
15	0	0	0	0	508	481
0	0	0	0	0	508	485
1	0	0	0	0	506	494
2	0	0	0	0	507	496
3	0	0	0	0	507	500
4	0	0	0	0	511	508
5	0	0	0	0	518	517
6	0	0	0	0	519	514
7	0	0	0	0	519	509
8	0	0	0	0	519	513
9	0	0	0	0	514	510
10	0	0	0	0	512	492
11	0	0	0	0	505	473
12	0	0	0	0	501	484
13	0	0	0	0	504	509
14	0	0	0	0	508	539
15	0	0	0	0	506	551
0	0	0	0	0	499	553
1	0	0	0	0	496	545
2	0	0	0	0	496	529
3	0	0	0	0	493	521
4	0	0	0	0	492	510
5	0	0	0	0	502	502
6	0	0	0	0	512	498
7	0	0	0	0	519	499
8	0	0	0	0	529	494
9	0	0	0	0	535	487
10	0	0	0	0	533	487
11	0	0	0	0	525	479
12	0	0	0	0	509	492
13	0	0	0	0	490	515
14	0	0	0	0	481	534
15	0	0	0	0	470	553
0	0	0	0	0	471	551
1	0	0	0	0	470	513
2	0	0	0	0	480	473
3	0	0	0	0	494	427
4	0	0	0	0	507	430
5	0	0	0	0	518	446
6	0	0	0	0	528	500
7	0	0	0	0	531	571
8	0	0	0	0	532	609
9	0	0	0	0	530	615
10	0	0	0	0	527	600
11	0	0	0	0	524	586
12	0	0	0	0	523	563
13	0	0	0	0	521	520
14	0	0	0	0	524	464
15	0	0	0	0	522	378
0	0	0	0	0	518	318
1	0	0	0	0	513	368
2	0	0	0	0	515	480
3	0	0	0	0	515	589
4	0	0	0	0	522	664
5	0	0	0	0	525	700
6	0	0	0	0	526	703
7	0	0	0	0	523	670
8	0	0	0	0	518	596
9	0	0	0	0	506	513
10	0	0	0	0	489	455
11	0	0	0	0	473	434
12	0	0	0	0	464	428
13	0	0	0	0	463	430
14	0	0	0	0	472	444
15	0	0	0	0	485	454
0	0	0	0	0	502	435
1	0	0	0	0	512	391
2	0	0	0	0	522	363
3	0	0	0	0	527	380
4	0	0	0	0	523	423
5	0	0	0	0	521	519
6	0	0	0	0	517	609
7	0	0	0	0	515	676
8	0	0	0	0	518	706
9	0	0	0	0	525	691
10	0	0	0	0	531	638
11	0	0	0	0	530	576
12	0	0	0	0	532	520
13	0	0	0	0	537	483
14	0	0	0	0	534	456
15	0	0	0	0	529	450
0	0	0	0	0	515	455
1	0	0	0	0	497	450
2	0	0	0	0	484	440
3	0	0	0	0	476	455
4	0	0	0	0	468	481
5	0	0	0	0	465	468
6	0	0	0	0	463	454
7	0	0	0	0	478	462
8	0	0	0	0	487	493
9	0	0	0	0	498	521
10	0	0	0	0	510	551
11	0	0	0	0	518	561
12	0	0	0	0	526	601
13	0	0	0	0	526	606
14	0	0	0	0	527	592
15	0	0	0	0	523	583
0	0	0	0	0	523	551
1	0	0	0	0	524	515
2	0	0	0	0	521	492
3	0	0	0	0	519	483
4	0	0	0	0	521	481
5	0	0	0	0	523	476
6	0	0	0	0	520	478
7	0	0	0	0	518	486
8	0	0	0	0	513	485
9	0	0	0	0	509	483
10	0	0	0	0	504	487
11	0	0	0	0	504	500
12	0	0	0	0	501	512
13	0	0	0	0	508	521
14	0	0	0	0	508	520
15	0	0	0	0	512	519
0	0	0	0	0	516	524
1	0	0	0	0	517	521
2	0	0	0	0	516	514
3	0	0	0	0	512	510
4	0	0	0	0	505	511
5	0	0	0	0	502	513
6	0	0	0	0	499	512
7	0	0	0	0	498	511
8	0	0	0	0	495	511
9	0	0	0	0	497	513
10	0	0	0	0	510	515
11	0	0	0	0	530	518
12	0	0	0	0	543	515
13	0	0	0	0	548	509
14	0	0	0	0	545	488
15	0	0	0	0	535	461
0	0	0	0	0	520	457
1	0	0	0	0	504	484
2	0	0	0	0	487	518
3	0	0	0	0	472	548
4	0	0	0	0	462	571
5	0	0	0	0	459	587
6	0	0	0	0	462	591
7	0	0	0	0	467	567
8	0	0	0	0	480	535
9	0	0	0	0	495	510
10	0	0	0	0	504	495
11	0	0	0	0	518	491
12	0	0	0	0	529	487
13	0	0	0	0	534	486
14	0	0	0	0	530	486
15	0	0	0	0	526	491
0	0	0	0	0	520	493
1	0	0	0	0	519	495
2	0	0	0	0	518	479
3	0	0	0	0	531	455
4	0	0	0	0	544	457
5	0	0	0	0	554	490
6	0	0	0	0	551	523
7	0	0	0	0	542	550
8	0	0	0	0	519	564
9	0	0	0	0	501	571
10	0	0	0	0	479	551
11	0	0	0	0	462	516
12	0	0	0	0	455	495
13	0	0	0	0	455	495
14	0	0	0	0	468	512
15	0	0	0	0	492	535
0	0	0	0	0	503	544
1	0	0	0	0	512	540
2	0	0	0	0	520	532
3	0	0	0	0	525	520
4	0	0	0	0	523	510
5	0	0	0	0	521	498
6	0	0	0	0	519	484
7	0	0	0	0	519	487
8	0	0	0	0	521	492
9	0	0	0	0	521	502
10	0	0	0	0	519	512
11	0	0	0	0	519	517
12	0	0	0	0	519	515
13	0	0	0	0	513	511
14	0	0	0	0	511	510
15	0	0	0	0	509	509
0	0	0	0	0	506	508
1	0	0	0	0	507	507
2	0	0	0	0	507	506
3	0	0	0	0	507	514
4	0	0	0	0	511	520
5	0	0	0	0	513	523
6	0	0	0	0	512	515
7	0	0	0	0	515	508
8	0	0	0	0	513	510
9	0	0	0	0	515	515
10	0	0	0	0	514	513
11	0	0	0	0	513	513
12	0	0	0	0	509	507
13	0	0	0	0	504	489
14	0	0	0	0	500	481
15	0	0	0	0	500	484
0	0	0	0	0	498	489
1	0	0	0	0	497	496
2	0	0	0	0	496	517
3	0	0	0	0	504	548
4	0	0	0	0	510	576
5	0	0	0	0	513	576
6	0	0	0	0	510	558
7	0	0	0	0	510	542
8	0	0	0	0	510	521
9	0	0	0	0	509	507
10	0	0	0	0	516	496
11	0	0	0	0	542	494
12	0	0	0	0	556	496
13	0	0	0	0	556	499
14	0	0	0	0	544	502
15	0	0	0	0	523	502
0	0	0	0	0	501	504
1	0	0	0	0	478	504
2	0	0	0	0	451	500
3	0	0	0	0	432	496
4	0	0	0	0	437	501
5	0	0	0	0	463	503
6	0	0	0	0	483	490
7	0	0	0	0	506	482
8	0	0	0	0	521	491
9	0	0	0	0	530	502
10	0	0	0	0	532	515
11	0	0	0	0	532	531
12	0	0	0	0	528	551
13	0	0	0	0	526	568
14	0	0	0	0	528	564
15	0	0	0	0	525	546
0	0	0	0	0	522	526
1	0	0	0	0	519	510
2	0	0	0	0	516	499
3	0	0	0	0	514	488
4	0	0	0	0	513	478
5	0	0	0	0	511	484
6	0	0	0	0	512	481
7	0	0	0	0	513	475
8	0	0	0	0	521	444
9	0	0	0	0	525	433
10	0	0	0	0	527	453
11	0	0	0	0	523	508
12	0	0	0	0	518	554
13	0	0	0	0	510	572
14	0	0	0	0	499	598
15	0	0	0	0	489	615
0	0	0	0	0	486	609
1	0	0	0	0	482	576
2	0	0	0	0	489	548
3	0	0	0	0	497	537
4	0	0	0	0	506	525
5	0	0	0	0	514	504
6	0	0	0	0	524	487
7	0	0	0	0	529	479
8	0	0	0	0	526	480
9	0	0	0	0	521	481
10	0	0	0	0	514	482
11	0	0	0	0	507	484
12	0	0	0	0	494	488
13	0	0	0	0	487	487
14	0	0	0	0	482	492
15	0	0	0	0	477	496
0	0	0	0	0	479	503
1	0	0	0	0	494	511
2	0	0	0	0	508	514
3	0	0	0	0	524	520
4	0	0	0	0	538	519
5	0	0	0	0	540	516
6	0	0	0	0	531	511
7	0	0	0	0	521	510
8	0	0	0	0	510	508
9	0	0	0	0	499	506
10	0	0	0	0	489	507
11	0	0	0	0	485	509
12	0	0	0	0	487	512
13	0	0	0	0	499	515
14	0	0	0	0	509	516
15	0	0	0	0	516	518
0	0	0	0	0	519	519
1	0	0	0	0	524	517
2	0	0	0	0	527	515
3	0	0	0	0	527	512
4	0	0	0	0	530	507
5	0	0	0	0	531	500
6	0	0	0	0	526	504
7	0	0	0	0	525	507
8	0	0	0	0	522	514
9	0	0	0	0	519	519
10	0	0	0	0	515	524
11	0	0	0	0	508	527
12	0	0	0	0	495	526
13	0	0	0	0	495	516
14	0	0	0	0	489	511
15	0	0	0	0	489	504
0	0	0	0	0	490	500
1	0	0	0	0	492	504
2	0	0	0	0	495	503
3	0	0	0	0	502	510
4	0	0	0	0	505	514
5	0	0	0	0	508	519
6	0	0	0	0	512	526
7	0	0	0	0	524	533
8	0	0	0	0	541	527
9	0	0	0	0	555	519
10	0	0	0	0	554	515
11	0	0	0	0	544	513
12	0	0	0	0	528	508
13	0	0	0	0	507	507
14	0	0	0	0	487	505
15	0	0	0	0	466	506
0	0	0	0	0	450	505
1	0	0	0	0	456	505
2	0	0	0	0	469	507
3	0	0	0	0	486	508
4	0	0	0	0	503	504
5	0	0	0	0	520	496
6	0	0	0	0	526	499
7	0	0	0	0	525	511
8	0	0	0	0	529	519
9	0	0	0	0	527	527
10	0	0	0	0	527	534
11	0	0	0	0	521	540
12	0	0	0	0	518	536
13	0	0	0	0	519	524
14	0	0	0	0	520	515
15	0	0	0	0	516	507
0	0	0	0	0	513	504
1	0	0	0	0	502	502
2	0	0	0	0	499	502
3	0	0	0	0	497	503
4	0	0	0	0	497	507
5	0	0	0	0	503	507
6	0	0	0	0	509	511
7	0	0	0	0	515	512
8	0	0	0	0	520	515
9	0	0	0	0	525	519
10	0	0	0	0	524	515
11	0	0	0	0	517	512
12	0	0	0	0	510	507
13	0	0	0	0	496	505
14	0	0	0	0	494	507
15	0	0	0	0	498	506
0	0	0	0	0	501	499
1	0	0	0	0	505	500
2	0	0	0	0	507	501
3	0	0	0	0	511	507
4	0	0	0	0	511	508
5	0	0	0	0	511	515
6	0	0	0	0	511	527
7	0	0	0	0	511	535
8	0	0	0	0	508	533
9	0	0	0	0	508	531
10	0	0	0	0	509	517
11	0	0	0	0	512	513
12	0	0	0	0	509	511
13	0	0	0	0	510	511
14	0	0	0	0	510	513
15	0	0	0	0	512	517
0	0	0	0	0	516	517
1	0	0	0	0	521	519
2	0	0	0	0	536	514
3	0	0	0	0	547	512
4	0	0	0	0	541	505
5	0	0	0	0	533	499
6	0	0	0	0	522	494
7	0	0	0	0	512	494
8	0	0	0	0	494	493
9	0	0	0	0	484	498
10	0	0	0	0	474	495
11	0	0	0	0	466	501
12	0	0	0	0	461	508
13	0	0	0	0	467	500
14	0	0	0	0	480	507
15	0	0	0	0	494	532
0	0	0	0	0	500	551
1	0	0	0	0	500	562
2	0	0	0	0	511	559
3	0	0	0	0	515	546
4	0	0	0	0	519	522
5	0	0	0	0	520	502
6	0	0	0	0	525	488
7	0	0	0	0	531	477
8	0	0	0	0	535	477
9	0	0	0	0	541	488
10	0	0	0	0	544	505
11	0	0	0	0	534	523
12	0	0	0	0	527	536
13	0	0	0	0	525	537
14	0	0	0	0	514	537
15	0	0	0	0	504	527
0	0	0	0	0	494	518
1	0	0	0	0	487	506
2	0	0	0	0	494	488
3	0	0	0	0	497	476
4	0	0	0	0	499	484
5	0	0	0	0	499	497
6	0	0	0	0	497	504
7	0	0	0	0	501	510
8	0	0	0	0	495	524
9	0	0	0	0	497	536
10	0	0	0	0	504	535
11	0	0	0	0	508	530
12	0	0	0	0	510	520
13	0	0	0	0	511	508
14	0	0	0	0	511	502
15	0	0	0	0	510	500
0	0	0	0	0	513	504
1	0	0	0	0	516	505
2	0	0	0	0	518	507
3	0	0	0	0	519	506
4	0	0	0	0	524	503
5	0	0	0	0	528	492
6	0	0	0	0	531	494
7	0	0	0	0	527	506
8	0	0	0	0	522	520
9	0	0	0	0	519	522
10	0	0	0	0	516	520
11	0	0	0	0	514	527
12	0	0	0	0	505	532
13	0	0	0	0	495	530
14	0	0	0	0	491	526
15	0	0	0	0	489	523
0	0	0	0	0	488	527
1	0	0	0	0	483	526
2	0	0	0	0	484	523
3	0	0	0	0	489	513
4	0	0	0	0	499	505
5	0	0	0	0	508	498
6	0	0	0	0	515	501
7	0	0	0	0	524	499
8	0	0	0	0	530	501
9	0	0	0	0	528	494
10	0	0	0	0	531	492
11	0	0	0	0	532	486
12	0	0	0	0	536	478
13	0	0	0	0	530	483
14	0	0	0	0	525	495
15	0	0	0	0	519	518
0	0	0	0	0	510	537
1	0	0	0	0	499	556
2	0	0	0	0	489	562
3	0	0	0	0	478	548
4	0	0	0	0	475	528
5	0	0	0	0	478	515
6	0	0	0	0	489	508
7	0	0	0	0	499	503
8	0	0	0	0	507	503
9	0	0	0	0	513	508
10	0	0	0	0	513	495
11	0	0	0	0	515	486
12	0	0	0	0	517	493
13	0	0	0	0	515	497
14	0	0	0	0	513	508
15	0	0	0	0	510	527
0	0	0	0	0	510	542
1	0	0	0	0	512	548
2	0	0	0	0	516	551
3	0	0	0	0	518	547
4	0	0	0	0	518	532
5	0	0	0	0	522	513
6	0	0	0	0	523	503
7	0	0	0	0	524	499
8	0	0	0	0	520	498
9	0	0	0	0	516	500
10	0	0	0	0	509	504
11	0	0	0	0	510	505
12	0	0	0	0	506	504
13	0	0	0	0	506	502
14	0	0	0	0	508	503
15	0	0	0	0	508	504
0	0	0	0	0	510	507
1	0	0	0	0	507	506
2	0	0	0	0	502	508
3	0	0	0	0	499	509
4	0	0	0	0	499	511
5	0	0	0	0	497	508
6	0	0	0	0	496	509
7	0	0	0	0	498	505
8	0	0	0	0	504	509
9	0	0	0	0	510	509
10	0	0	0	0	513	512
11	0	0	0	0	514	516
12	0	0	0	0	517	515
13	0	0	0	0	515	512
14	0	0	0	0	516	512
15	0	0	0	0	514	505
0	0	0	0	0	516	505
1	0	0	0	0	513	512
2	0	0	0	0	514	518
3	0	0	0	0	511	521
4	0	0	0	0	511	523
5	0	0	0	0	510	517
6	0	0	0	0	510	513
7	0	0	0	0	515	507
8	0	0	0	0	520	508
9	0	0	0	0	534	510
10	0	0	0	0	558	521
11	0	0	0	0	567	528
12	0	0	0	0	559	519
13	0	0	0	0	538	502
14	0	0	0	0	505	509
15	0	0	0	0	471	516
0	0	0	0	0	444	527
1	0	0	0	0	422	527
2	0	0	0	0	413	523
3	0	0	0	0	429	517
4	0	0	0	0	454	512
5	0	0	0	0	483	509
6	0	0	0	0	511	495
7	0	0	0	0	527	476
8	0	0	0	0	538	466
9	0	0	0	0	539	466
10	0	0	0	0	537	477
11	0	0	0	0	533	502
12	0	0	0	0	530	531
13	0	0	0	0	527	559
14	0	0	0	0	524	589
15	0	0	0	0	524	606
0	0	0	0	0	522	589
1	0	0	0	0	521	548
2	0	0	0	0	519	508
3	0	0	0	0	516	486
4	0	0	0	0	513	472
5	0	0	0	0	512	472
6	0	0	0	0	512	482
7	0	0	0	0	512	490
8	0	0	0	0	512	500
9	0	0	0	0	510	505
10	0	0	0	0	518	512
11	0	0	0	0	527	518
12	0	0	0	0	540	512
13	0	0	0	0	540	507
14	0	0	0	0	531	497
15	0	0	0	0	512	495
0	0	0	0	0	494	498
1	0	0	0	0	477	505
2	0	0	0	0	459	512
3	0	0	0	0	450	520
4	0	0	0	0	455	524
5	0	0	0	0	471	526
6	0	0	0	0	492	521
7	0	0	0	0	512	515
8	0	0	0	0	523	510
9	0	0	0	0	530	511
10	0	0	0	0	532	508
11	0	0	0	0	529	508
12	0	0	0	0	530	509
13	0	0	0	0	539	511
14	0	0	0	0	532	511
15	0	0	0	0	527	512
0	0	0	0	0	526	511
1	0	0	0	0	514	512
2	0	0	0	0	504	512
3	0	0	0	0	496	511
4	0	0	0	0	488	511
5	0	0	0	0	485	506
6	0	0	0	0	489	504
7	0	0	0	0	500	503
8	0	0	0	0	508	492
9	0	0	0	0	513	476
10	0	0	0	0	524	483
11	0	0	0	0	529	506
12	0	0	0	0	533	534
13	0	0	0	0	528	559
14	0	0	0	0	519	566
15	0	0	0	0	507	567
0	0	0	0	0	490	552
1	0	0	0	0	478	533
2	0	0	0	0	470	519
3	0	0	0	0	468	504
4	0	0	0	0	476	496
5	0	0	0	0	491	493
6	0	0	0	0	500	497
7	0	0	0	0	515	499
8	0	0	0	0	530	495
9	0	0	0	0	539	487
10	0	0	0	0	539	491
11	0	0	0	0	536	498
12	0	0	0	0	531	472
13	0	0	0	0	526	440
14	0	0	0	0	517	459
15	0	0	0	0	505	507
0	0	0	0	0	496	554
1	0	0	0	0	497	574
2	0	0	0	0	500	582
3	0	0	0	0	505	591
4	0	0	0	0	508	585
5	0	0	0	0	510	557
6	0	0	0	0	513	513
7	0	0	0	0	515	482
8	0	0	0	0	515	482
9	0	0	0	0	518	491
10	0	0	0	0	520	489
11	0	0	0	0	516	488
12	0	0	0	0	517	494
13	0	0	0	0	515	510
14	0	0	0	0	515	519
15	0	0	0	0	512	516
0	0	0	0	0	511	514
1	0	0	0	0	506	524
2	0	0	0	0	505	528
3	0	0	0	0	508	505
4	0	0	0	0	508	468
5	0	0	0	0	510	463
6	0	0	0	0	515	491
7	0	0	0	0	518	518
8	0	0	0	0	517	537
9	0	0	0	0	514	543
10	0	0	0	0	514	549
11	0	0	0	0	510	553
12	0	0	0	0	508	544
13	0	0	0	0	504	524
14	0	0	0	0	502	507
15	0	0	0	0	504	500
0	0	0	0	0	510	492
1	0	0	0	0	511	494
2	0	0	0	0	508	499
3	0	0	0	0	502	502
4	0	0	0	0	503	506
5	0	0	0	0	504	507
6	0	0	0	0	504	507
7	0	0	0	0	500	510
8	0	0	0	0	504	511
9	0	0	0	0	508	510
10	0	0	0	0	510	510
11	0	0	0	0	515	511
12	0	0	0	0	515	512
13	0	0	0	0	511	510
14	0	0	0	0	509	506
15	0	0	0	0	512	509
0	0	0	0	0	518	509
1	0	0	0	0	519	513
2	0	0	0	0	512	513
3	0	0	0	0	514	512
4	0	0	0	0	513	508
5	0	0	0	0	507	501
6	0	0	0	0	498	492
7	0	0	0	0	485	488
8	0	0	0	0	480	497
9	0	0	0	0	485	512
10	0	0	0	0	492	528
11	0	0	0	0	499	536
12	0	0	0	0	511	542
13	0	0	0	0	521	547
14	0	0	0	0	528	537
15	0	0	0	0	529	522
0	0	0	0	0	525	512
1	0	0	0	0	515	510
2	0	0	0	0	511	499
3	0	0	0	0	509	498
4	0	0	0	0	505	502
5	0	0	0	0	504	505
6	0	0	0	0	507	506
7	0	0	0	0	508	509
8	0	0	0	0	515	506
9	0	0	0	0	524	509
10	0	0	0	0	521	515
11	0	0	0	0	522	519
12	0	0	0	0	512	520
13	0	0	0	0	504	519
14	0	0	0	0	501	520
15	0	0	0	0	495	513
0	0	0	0	0	494	498
1	0	0	0	0	495	495
2	0	0	0	0	501	496
3	0	0	0	0	504	494
4	0	0	0	0	507	507
5	0	0	0	0	512	511
6	0	0	0	0	521	528
7	0	0	0	0	523	527
8	0	0	0	0	524	506
9	0	0	0	0	520	496
10	0	0	0	0	518	520
11	0	0	0	0	511	540
12	0	0	0	0	508	542
13	0	0	0	0	508	540
14	0	0	0	0	508	532
15	0	0	0	0	513	527
0	0	0	0	0	517	519
1	0	0	0	0	527	508
2	0	0	0	0	533	492
3	0	0	0	0	538	495
4	0	0	0	0	530	509
5	0	0	0	0	519	519
6	0	0	0	0	505	517
7	0	0	0	0	489	513
8	0	0	0	0	472	511
9	0	0	0	0	463	506
10	0	0	0	0	466	503
11	0	0	0	0	472	504
12	0	0	0	0	484	505
13	0	0	0	0	500	504
14	0	0	0	0	513	499
15	0	0	0	0	526	495
0	0	0	0	0	530	491
1	0	0	0	0	529	487
2	0	0	0	0	527	488
3	0	0	0	0	526	491
4	0	0	0	0	522	502
5	0	0	0	0	519	521
6	0	0	0	0	512	532
7	0	0	0	0	512	541
8	0	0	0	0	512	542
9	0	0	0	0	512	539
10	0	0	0	0	514	533
11	0	0	0	0	514	528
12	0	0	0	0	515	526
13	0	0	0	0	511	526
14	0	0	0	0	503	515
15	0	0	0	0	497	505
0	0	0	0	0	496	503
1	0	0	0	0	497	493
2	0	0	0	0	495	483
3	0	0	0	0	499	493
4	0	0	0	0	504	506
5	0	0	0	0	513	513
6	0	0	0	0	521	520
7	0	0	0	0	527	529
8	0	0	0	0	530	534
9	0	0	0	0	535	529
10	0	0	0	0	543	519
11	0	0	0	0	542	516
12	0	0	0	0	527	512
13	0	0	0	0	512	510
14	0	0	0	0	496	504
15	0	0	0	0	476	503
0	0	0	0	0	461	503
1	0	0	0	0	454	502
2	0	0	0	0	455	499
3	0	0	0	0	471	507
4	0	0	0	0	495	512
5	0	0	0	0	512	515
6	0	0	0	0	519	514
7	0	0	0	0	528	513
8	0	0	0	0	532	513
9	0	0	0	0	531	509
10	0	0	0	0	529	504
11	0	0	0	0	526	499
12	0	0	0	0	516	497
13	0	0	0	0	511	505
14	0	0	0	0	504	507
15	0	0	0	0	504	515
0	0	0	0	0	497	527
1	0	0	0	0	496	536
2	0	0	0	0	501	539
3	0	0	0	0	507	535
4	0	0	0	0	510	536
5	0	0	0	0	515	528
6	0	0	0	0	524	514
7	0	0	0	0	530	505
8	0	0	0	0	531	501
9	0	0	0	0	535	497
10	0	0	0	0	532	496
11	0	0	0	0	529	500
12	0	0	0	0	528	504
13	0	0	0	0	519	507
14	0	0	0	0	507	499
15	0	0	0	0	496	483
0	0	0	0	0	490	499
1	0	0	0	0	482	519
2	0	0	0	0	481	530
3	0	0	0	0	479	539
4	0	0	0	0	481	536
5	0	0	0	0	487	528
6	0	0	0	0	496	526
7	0	0	0	0	511	518
8	0	0	0	0	522	509
9	0	0	0	0	530	505
10	0	0	0	0	527	507
11	0	0	0	0	523	508
12	0	0	0	0	516	508
13	0	0	0	0	513	505
14	0	0	0	0	508	505
15	0	0	0	0	506	487
0	0	0	0	0	507	467
1	0	0	0	0	511	460
2	0	0	0	0	516	473
3	0	0	0	0	519	499
4	0	0	0	0	519	524
5	0	0	0	0	514	542
6	0	0	0	0	509	552
7	0	0	0	0	504	564
8	0	0	0	0	508	565
9	0	0	0	0	509	551
10	0	0	0	0	515	543
11	0	0	0	0	524	539
12	0	0	0	0	530	530
13	0	0	0	0	533	522
14	0	0	0	0	537	512
15	0	0	0	0	534	503
0	0	0	0	0	520	499
1	0	0	0	0	502	499
2	0	0	0	0	484	500
3	0	0	0	0	466	493
4	0	0	0	0	455	489
5	0	0	0	0	459	492
6	0	0	0	0	466	499
7	0	0	0	0	475	507
8	0	0	0	0	496	509
9	0	0	0	0	515	512
10	0	0	0	0	528	515
11	0	0	0	0	532	512
12	0	0	0	0	529	504
13	0	0	0	0	530	503
14	0	0	0	0	527	508
15	0	0	0	0	521	517
0	0	0	0	0	515	524
1	0	0	0	0	516	527
2	0	0	0	0	519	525
3	0	0	0	0	519	516
4	0	0	0	0	517	510
5	0	0	0	0	515	508
6	0	0	0	0	515	505
7	0	0	0	0	520	507
8	0	0	0	0	523	509
9	0	0	0	0	527	513
10	0	0	0	0	526	513
11	0	0	0	0	513	512
12	0	0	0	0	507	510
13	0	0	0	0	503	506
14	0	0	0	0	495	503
15	0	0	0	0	486	505
0	0	0	0	0	482	509
1	0	0	0	0	482	513
2	0	0	0	0	481	512
3	0	0	0	0	484	513
4	0	0	0	0	488	513
5	0	0	0	0	495	508
6	0	0	0	0	495	500
7	0	0	0	0	499	496
8	0	0	0	0	504	496
9	0	0	0	0	511	507
10	0	0	0	0	520	516
11	0	0	0	0	531	524
12	0	0	0	0	530	528
13	0	0	0	0	528	529
14	0	0	0	0	526	519
15	0	0	0	0	524	512
0	0	0	0	0	519	511
1	0	0	0	0	519	515
2	0	0	0	0	517	522
3	0	0	0	0	516	526
4	0	0	0	0	515	523
5	0	0	0	0	511	518
6	0	0	0	0	511	511
7	0	0	0	0	512	508
8	0	0	0	0	511	507
9	0	0	0	0	513	506
10	0	0	0	0	510	505
11	0	0	0	0	508	508
12	0	0	0	0	511	504
13	0	0	0	0	511	498
14	0	0	0	0	508	490
15	0	0	0	0	507	489
0	0	0	0	0	504	500
1	0	0	0	0	508	516
2	0	0	0	0	507	530
3	0	0	0	0	508	543
4	0	0	0	0	508	544
5	0	0	0	0	509	538
6	0	0	0	0	509	528
7	0	0	0	0	509	515
8	0	0	0	0	508	505
9	0	0	0	0	508	499
10	0	0	0	0	510	494
11	0	0	0	0	509	488
12	0	0	0	0	508	481
13	0	0	0	0	507	475
14	0	0	0	0	510	487
15	0	0	0	0	512	513
0	0	0	0	0	513	536
1	0	0	0	0	511	549
2	0	0	0	0	512	553
3	0	0	0	0	512	555
4	0	0	0	0	518	545
5	0	0	0	0	526	530
6	0	0	0	0	531	511
7	0	0	0	0	531	497
8	0	0	0	0	526	499
9	0	0	0	0	516	504
10	0	0	0	0	504	512
11	0	0	0	0	493	511
12	0	0	0	0	482	504
13	0	0	0	0	471	499
14	0	0	0	0	473	469
15	0	0	0	0	482	455
0	0	0	0	0	491	467
1	0	0	0	0	495	495
2	0	0	0	0	503	519
3	0	0	0	0	508	542
4	0	0	0	0	518	559
5	0	0	0	0	524	570
6	0	0	0	0	522	567
7	0	0	0	0	518	553
8	0	0	0	0	518	537
9	0	0	0	0	515	519
10	0	0	0	0	516	512
11	0	0	0	0	514	502
12	0	0	0	0	512	495
13	0	0	0	0	507	490
14	0	0	0	0	508	492
15	0	0	0	0	512	496
0	0	0	0	0	509	491
1	0	0	0	0	506	493
2	0	0	0	0	503	497
3	0	0	0	0	509	504
4	0	0	0	0	515	507
5	0	0	0	0	519	510
6	0	0	0	0	519	511
7	0	0	0	0	515	515
8	0	0	0	0	516	516
9	0	0	0	0	513	515
10	0	0	0	0	512	511
11	0	0	0	0	509	509
12	0	0	0	0	504	504
13	0	0	0	0	507	501
14	0	0	0	0	508	503
15	0	0	0	0	509	507
0	0	0	0	0	510	505
1	0	0	0	0	510	496
2	0	0	0	0	509	487
3	0	0	0	0	509	495
4	0	0	0	0	507	519
5	0	0	0	0	505	543
6	0	0	0	0	508	557
7	0	0	0	0	509	561
8	0	0	0	0	509	559
9	0	0	0	0	512	546
10	0	0	0	0	512	531
11	0	0	0	0	512	516
12	0	0	0	0	511	498
13	0	0	0	0	510	492
14	0	0	0	0	511	496
15	0	0	0	0	509	494
0	0	0	0	0	509	499
1	0	0	0	0	508	500
2	0	0	0	0	510	488
3	0	0	0	0	511	480
4	0	0	0	0	511	480
5	0	0	0	0	508	489
6	0	0	0	0	509	494
7	0	0	0	0	509	504
8	0	0	0	0	512	520
9	0	0	0	0	510	540
10	0	0	0	0	509	551
11	0	0	0	0	509	538
12	0	0	0	0	510	533
13	0	0	0	0	511	539
14	0	0	0	0	510	534
15	0	0	0	0	509	525
0	0	0	0	0	508	510
1	0	0	0	0	508	502
2	0	0	0	0	508	504
3	0	0	0	0	508	506
4	0	0	0	0	508	516
5	0	0	0	0	509	520
6	0	0	0	0	512	511
7	0	0	0	0	510	511
8	0	0	0	0	512	505
9	0	0	0	0	510	497
10	0	0	0	0	511	494
11	0	0	0	0	511	478
12	0	0	0	0	511	484
13	0	0	0	0	511	502
14	0	0	0	0	511	520
15	0	0	0	0	510	534
0	0	0	0	0	510	544
1	0	0	0	0	513	546
2	0	0	0	0	514	534
3	0	0	0	0	518	529
4	0	0	0	0	522	514
5	0	0	0	0	529	504
6	0	0	0	0	527	500
7	0	0	0	0	521	504
8	0	0	0	0	516	503
9	0	0	0	0	508	503
10	0	0	0	0	497	502
11	0	0	0	0	487	504
12	0	0	0	0	479	506
13	0	0	0	0	475	506
14	0	0	0	0	473	504
15	0	0	0	0	482	499
0	0	0	0	0	487	495
1	0	0	0	0	496	494
2	0	0	0	0	507	505
3	0	0	0	0	516	512
4	0	0	0	0	520	522
5	0	0	0	0	522	530
6	0	0	0	0	524	526
7	0	0	0	0	522	514
8	0	0	0	0	521	509
9	0	0	0	0	521	515
10	0	0	0	0	517	521
11	0	0	0	0	518	527
12	0	0	0	0	516	527
13	0	0	0	0	513	533
14	0	0	0	0	513	531
15	0	0	0	0	513	528
0	0	0	0	0	511	518
1	0	0	0	0	512	510
2	0	0	0	0	511	510
3	0	0	0	0	512	510
4	0	0	0	0	512	503
5	0	0	0	0	512	500
6	0	0	0	0	509	498
7	0	0	0	0	507	491
8	0	0	0	0	506	496
9	0	0	0	0	507	503
10	0	0	0	0	505	506
11	0	0	0	0	510	512
12	0	0	0	0	510	514
13	0	0	0	0	510	517
14	0	0	0	0	508	515
15	0	0	0	0	509	515
0	0	0	0	0	508	513
1	0	0	0	0	512	516
2	0	0	0	0	506	515
3	0	0	0	0	507	515
4	0	0	0	0	507	515
5	0	0	0	0	508	511
6	0	0	0	0	508	497
7	0	0	0	0	512	493
8	0	0	0	0	510	492
9	0	0	0	0	511	501
10	0	0	0	0	510	508
11	0	0	0	0	510	516
12	0	0	0	0	511	530
13	0	0	0	0	508	540
14	0	0	0	0	508	536
15	0	0	0	0	508	529
0	0	0	0	0	509	525
1	0	0	0	0	510	522
2	0	0	0	0	513	512
3	0	0	0	0	519	505
4	0	0	0	0	521	500
5	0	0	0	0	519	500
6	0	0	0	0	520	504
7	0	0	0	0	513	505
8	0	0	0	0	509	505
9	0	0	0	0	507	502
10	0	0	0	0	512	504
11	0	0	0	0	518	509
12	0	0	0	0	521	508
13	0	0	0	0	519	510
14	0	0	0	0	511	517
15	0	0	0	0	501	523
0	0	0	0	0	489	531
1	0	0	0	0	475	527
2	0	0	0	0	467	521
3	0	0	0	0	468	513
4	0	0	0	0	475	510
5	0	0	0	0	493	511
6	0	0	0	0	512	507
7	0	0	0	0	522	508
8	0	0	0	0	523	504
9	0	0	0	0	527	493
10	0	0	0	0	528	490
11	0	0	0	0	523	487
12	0	0	0	0	523	494
13	0	0	0	0	522	510
14	0	0	0	0	527	524
15	0	0	0	0	523	540
0	0	0	0	0	526	552
1	0	0	0	0	528	546
2	0	0	0	0	526	533
3	0	0	0	0	518	521
4	0	0	0	0	505	509
5	0	0	0	0	491	499
6	0	0	0	0	484	501
7	0	0	0	0	477	496
8	0	0	0	0	480	498
9	0	0	0	0	482	499
10	0	0	0	0	489	489
11	0	0	0	0	499	488
12	0	0	0	0	513	491
13	0	0	0	0	519	506
14	0	0	0	0	523	530
15	0	0	0	0	525	551
0	0	0	0	0	524	555
1	0	0	0	0	519	557
2	0	0	0	0	518	552
3	0	0	0	0	515	534
4	0	0	0	0	515	516
5	0	0	0	0	512	508
6	0	0	0	0	510	501
7	0	0	0	0	511	495
8	0	0	0	0	512	495
9	0	0	0	0	510	492
10	0	0	0	0	511	488
11	0	0	0	0	511	495
12	0	0	0	0	513	502
13	0	0	0	0	514	507
14	0	0	0	0	514	512
15	0	0	0	0	514	515
0	0	0	0	0	512	518
1	0	0	0	0	511	518
2	0	0	0	0	509	511
3	0	0	0	0	507	502
4	0	0	0	0	507	502
5	0	0	0	0	506	499
6	0	0	0	0	507	505
7	0	0	0	0	505	512
8	0	0	0	0	507	518
9	0	0	0	0	506	524
10	0	0	0	0	505	527
11	0	0	0	0	504	526
12	0	0	0	0	508	518
13	0	0	0	0	512	509
14	0	0	0	0	513	507
15	0	0	0	0	512	508
0	0	0	0	0	512	511
1	0	0	0	0	512	512
2	0	0	0	0	513	513
3	0	0	0	0	515	513
4	0	0	0	0	515	511
5	0	0	0	0	516	504
6	0	0	0	0	515	499
7	0	0	0	0	513	498
8	0	0	0	0	519	508
9	0	0	0	0	519	512
10	0	0	0	0	514	515
11	0	0	0	0	511	521
12	0	0	0	0	500	526
13	0	0	0	0	496	525
14	0	0	0	0	490	524
15	0	0	0	0	482	524
0	0	0	0	0	482	521
1	0	0	0	0	488	520
2	0	0	0	0	499	522
3	0	0	0	0	508	517
4	0	0	0	0	520	511
5	0	0	0	0	527	507
6	0	0	0	0	531	507
7	0	0	0	0	529	507
8	0	0	0	0	525	505
9	0	0	0	0	518	501
10	0	0	0	0	503	495
11	0	0	0	0	488	496
12	0	0	0	0	478	500
13	0	0	0	0	483	505
14	0	0	0	0	489	511
15	0	0	0	0	500	515
0	0	0	0	0	508	515
1	0	0	0	0	513	504
2	0	0	0	0	519	492
3	0	0	0	0	519	499
4	0	0	0	0	518	512
5	0	0	0	0	519	523
6	0	0	0	0	517	535
7	0	0	0	0	518	543
8	0	0	0	0	517	552
9	0	0	0	0	515	552
10	0	0	0	0	516	536
11	0	0	0	0	519	516
12	0	0	0	0	525	504
13	0	0	0	0	532	499
14	0	0	0	0	537	496
15	0	0	0	0	540	487
0	0	0	0	0	549	490
1	0	0	0	0	543	498
2	0	0	0	0	526	506
3	0	0	0	0	500	518
4	0	0	0	0	480	521
5	0	0	0	0	460	524
6	0	0	0	0	447	516
7	0	0	0	0	442	511
8	0	0	0	0	447	510
9	0	0	0	0	462	510
10	0	0	0	0	481	500
11	0	0	0	0	499	497
12	0	0	0	0	516	497
13	0	0	0	0	529	501
14	0	0	0	0	540	510
15	0	0	0	0	550	516
0	0	0	0	0	548	522
1	0	0	0	0	543	523
2	0	0	0	0	540	525
3	0	0	0	0	541	523
4	0	0	0	0	538	524
5	0	0	0	0	524	523
6	0	0	0	0	505	514
7	0	0	0	0	487	510
8	0	0	0	0	482	508
9	0	0	0	0	488	507
10	0	0	0	0	483	505
11	0	0	0	0	478	512
12	0	0	0	0	485	512
13	0	0	0	0	495	515
14	0	0	0	0	504	513
15	0	0	0	0	506	508
0	0	0	0	0	508	510
1	0	0	0	0	509	508
2	0	0	0	0	515	495
3	0	0	0	0	516	485
4	0	0	0	0	515	495
5	0	0	0	0	517	507
6	0	0	0	0	521	515
7	0	0	0	0	518	527
8	0	0	0	0	519	538
9	0	0	0	0	519	545
10	0	0	0	0	515	543
11	0	0	0	0	515	530
12	0	0	0	0	516	518
13	0	0	0	0	515	512
14	0	0	0	0	511	512
15	0	0	0	0	511	507
0	0	0	0	0	511	505
1	0	0	0	0	511	499
2	0	0	0	0	509	488
3	0	0	0	0	511	487
4	0	0	0	0	510	494
5	0	0	0	0	509	505
6	0	0	0	0	515	515
7	0	0	0	0	515	522
8	0	0	0	0	519	528
9	0	0	0	0	518	533
10	0	0	0	0	512	525
11	0	0	0	0	511	518
12	0	0	0	0	506	513
13	0	0	0	0	497	508
14	0	0	0	0	492	504
15	0	0	0	0	491	504
0	0	0	0	0	499	507
1	0	0	0	0	511	508
2	0	0	0	0	526	508
3	0	0	0	0	536	504
4	0	0	0	0	542	504
5	0	0	0	0	548	502
6	0	0	0	0	541	491
7	0	0	0	0	530	496
8	0	0	0	0	510	508
9	0	0	0	0	485	522
10	0	0	0	0	462	532
11	0	0	0	0	457	538
12	0	0	0	0	456	537
13	0	0	0	0	464	538
14	0	0	0	0	472	529
15	0	0	0	0	483	515
0	0	0	0	0	495	508
1	0	0	0	0	509	508
2	0	0	0	0	526	511
3	0	0	0	0	532	506
4	0	0	0	0	542	496
5	0	0	0	0	553	493
6	0	0	0	0	566	497
7	0	0	0	0	574	508
8	0	0	0	0	569	519
9	0	0	0	0	545	525
10	0	0	0	0	516	527
11	0	0	0	0	487	522
12	0	0	0	0	463	512
13	0	0	0	0	442	513
14	0	0	0	0	432	508
15	0	0	0	0	433	508
0	0	0	0	0	450	508
1	0	0	0	0	482	508
2	0	0	0	0	510	512
3	0	0	0	0	532	516
4	0	0	0	0	535	518
5	0	0	0	0	531	515
6	0	0	0	0	524	507
7	0	0	0	0	516	503
8	0	0	0	0	511	508
9	0	0	0	0	511	510
10	0	0	0	0	503	510
11	0	0	0	0	502	508
12	0	0	0	0	514	512
13	0	0	0	0	521	517
14	0	0	0	0	522	519
15	0	0	0	0	526	515
0	0	0	0	0	525	513
1	0	0	0	0	525	511
2	0	0	0	0	523	508
3	0	0	0	0	523	487
4	0	0	0	0	519	476
5	0	0	0	0	521	486
6	0	0	0	0	515	500
7	0	0	0	0	511	505
8	0	0	0	0	512	517
9	0	0	0	0	513	536
10	0	0	0	0	514	558
11	0	0	0	0	524	560
12	0	0	0	0	543	545
13	0	0	0	0	550	527
14	0	0	0	0	542	519
15	0	0	0	0	531	507
0	0	0	0	0	516	492
1	0	0	0	0	497	482
2	0	0	0	0	473	486
3	0	0	0	0	450	482
4	0	0	0	0	438	489
5	0	0	0	0	443	504
6	0	0	0	0	456	520
7	0	0	0	0	474	538
8	0	0	0	0	496	537
9	0	0	0	0	516	538
10	0	0	0	0	527	544
11	0	0	0	0	530	549
12	0	0	0	0	529	537
13	0	0	0	0	532	521
14	0	0	0	0	535	504
15	0	0	0	0	531	487
0	0	0	0	0	524	480
1	0	0	0	0	518	485
2	0	0	0	0	516	500
3	0	0	0	0	513	495
4	0	0	0	0	507	488
5	0	0	0	0	505	507
6	0	0	0	0	503	528
7	0	0	0	0	502	541
8	0	0	0	0	508	536
9	0	0	0	0	509	535
10	0	0	0	0	511	530
11	0	0	0	0	511	523
12	0	0	0	0	511	512
13	0	0	0	0	512	503
14	0	0	0	0	515	498
15	0	0	0	0	512	499
0	0	0	0	0	514	499
1	0	0	0	0	534	500
2	0	0	0	0	550	503
3	0	0	0	0	554	504
4	0	0	0	0	549	506
5	0	0	0	0	537	507
6	0	0	0	0	520	504
7	0	0	0	0	503	490
8	0	0	0	0	480	492
9	0	0	0	0	455	504
10	0	0	0	0	444	513
11	0	0	0	0	442	511
12	0	0	0	0	447	509
13	0	0	0	0	466	511
14	0	0	0	0	481	525
15	0	0	0	0	491	540
0	0	0	0	0	509	540
1	0	0	0	0	521	537
2	0	0	0	0	522	539
3	0	0	0	0	526	530
4	0	0	0	0	524	521
5	0	0	0	0	521	511
6	0	0	0	0	525	506
7	0	0	0	0	528	503
8	0	0	0	0	532	504
9	0	0	0	0	531	503
10	0	0	0	0	527	503
11	0	0	0	0	524	503
12	0	0	0	0	521	501
13	0	0	0	0	516	501
14	0	0	0	0	517	507
15	0	0	0	0	514	510
0	0	0	0	0	512	510
1	0	0	0	0	515	513
2	0	0	0	0	520	517
3	0	0	0	0	516	521
4	0	0	0	0	514	521
5	0	0	0	0	514	518
6	0	0	0	0	516	512
7	0	0	0	0	518	512
8	0	0	0	0	519	509
9	0	0	0	0	516	509
10	0	0	0	0	528	509
11	0	0	0	0	521	512
12	0	0	0	0	496	504
13	0	0	0	0	473	504
14	0	0	0	0	459	505
15	0	0	0	0	446	509
0	0	0	0	0	449	519
1	0	0	0	0	459	523
2	0	0	0	0	469	520
3	0	0	0	0	486	521
4	0	0	0	0	505	519
5	0	0	0	0	528	513
6	0	0	0	0	538	501
7	0	0	0	0	543	496
8	0	0	0	0	545	498
9	0	0	0	0	543	511
10	0	0	0	0	542	513
11	0	0	0	0	551	518
12	0	0	0	0	542	514
13	0	0	0	0	527	521
14	0	0	0	0	513	529
15	0	0	0	0	499	535
0	0	0	0	0	488	531
1	0	0	0	0	479	528
2	0	0	0	0	472	521
3	0	0	0	0	475	512
4	0	0	0	0	487	503
5	0	0	0	0	508	491
6	0	0	0	0	523	473
7	0	0	0	0	542	472
8	0	0	0	0	545	489
9	0	0	0	0	532	512
10	0	0	0	0	521	531
11	0	0	0	0	510	541
12	0	0	0	0	497	546
13	0	0	0	0	494	537
14	0	0	0	0	491	515
15	0	0	0	0	494	499
0	0	0	0	0	512	487
1	0	0	0	0	520	479
2	0	0	0	0	520	479
3	0	0	0	0	520	495
4	0	0	0	0	521	519
5	0	0	0	0	518	537
6	0	0	0	0	507	549
7	0	0	0	0	503	553
8	0	0	0	0	508	551
9	0	0	0	0	508	538
10	0	0	0	0	507	521
11	0	0	0	0	505	503
12	0	0	0	0	503	491
13	0	0	0	0	499	478
14	0	0	0	0	502	483
15	0	0	0	0	502	498
0	0	0	0	0	500	514
1	0	0	0	0	501	521
2	0	0	0	0	507	522
3	0	0	0	0	510	527
4	0	0	0	0	514	528
5	0	0	0	0	517	523
6	0	0	0	0	518	513
7	0	0	0	0	520	504
8	0	0	0	0	518	500
9	0	0	0	0	515	501
10	0	0	0	0	515	501
11	0	0	0	0	513	503
12	0	0	0	0	512	500
13	0	0	0	0	504	504
14	0	0	0	0	502	504
15	0	0	0	0	503	510
0	0	0	0	0	504	511
1	0	0	0	0	505	513
2	0	0	0	0	504	512
3	0	0	0	0	507	513
4	0	0	0	0	508	516
5	0	0	0	0	509	510
6	0	0	0	0	505	503
7	0	0	0	0	504	508
8	0	0	0	0	509	514
9	0	0	0	0	515	525
10	0	0	0	0	519	527
11	0	0	0	0	519	524
12	0	0	0	0	519	523
13	0	0	0	0	519	524
14	0	0	0	0	516	517
15	0	0	0	0	508	512
0	0	0	0	0	500	509
1	0	0	0	0	497	509
2	0	0	0	0	502	508
3	0	0	0	0	507	510
4	0	0	0	0	516	509
5	0	0	0	0	530	505
6	0	0	0	0	539	507
7	0	0	0	0	530	510
8	0	0	0	0	521	507
9	0	0	0	0	504	511
10	0	0	0	0	490	512
11	0	0	0	0	476	514
12	0	0	0	0	463	513
13	0	0	0	0	460	516
14	0	0	0	0	472	518
15	0	0	0	0	495	518
0	0	0	0	0	509	515
1	0	0	0	0	515	510
2	0	0	0	0	526	512
3	0	0	0	0	528	512
4	0	0	0	0	527	516
5	0	0	0	0	532	516
6	0	0	0	0	538	515
7	0	0	0	0	536	515
8	0	0	0	0	534	513
9	0	0	0	0	531	511
10	0	0	0	0	529	500
11	0	0	0	0	519	493
12	0	0	0	0	512	488
13	0	0	0	0	505	494
14	0	0	0	0	506	496
15	0	0	0	0	520	507
0	0	0	0	0	536	527
1	0	0	0	0	535	545
2	0	0	0	0	530	559
3	0	0	0	0	518	532
4	0	0	0	0	497	503
5	0	0	0	0	476	485
6	0	0	0	0	461	487
7	0	0	0	0	463	486
8	0	0	0	0	465	496
9	0	0	0	0	468	528
10	0	0	0	0	484	563
11	0	0	0	0	512	583
12	0	0	0	0	532	571
13	0	0	0	0	528	543
14	0	0	0	0	511	521
15	0	0	0	0	494	505
0	0	0	0	0	475	490
1	0	0	0	0	471	482
2	0	0	0	0	485	475
3	0	0	0	0	499	473
4	0	0	0	0	511	469
5	0	0	0	0	516	449
6	0	0	0	0	521	455
7	0	0	0	0	519	475
8	0	0	0	0	526	498
9	0	0	0	0	531	526
10	0	0	0	0	533	555
11	0	0	0	0	539	564
12	0	0	0	0	547	568
13	0	0	0	0	553	569
14	0	0	0	0	543	560
15	0	0	0	0	532	542
0	0	0	0	0	518	520
1	0	0	0	0	499	505
2	0	0	0	0	492	499
3	0	0	0	0	491	495
4	0	0	0	0	484	496
5	0	0	0	0	473	496
6	0	0	0	0	471	497
7	0	0	0	0	478	502
8	0	0	0	0	485	504
9	0	0	0	0	487	509
10	0	0	0	0	483	507
11	0	0	0	0	497	506
12	0	0	0	0	513	504
13	0	0	0	0	526	509
14	0	0	0	0	531	511
15	0	0	0	0	532	515
0	0	0	0	0	530	512
1	0	0	0	0	531	511
2	0	0	0	0	530	513
3	0	0	0	0	530	514
4	0	0	0	0	527	514
5	0	0	0	0	524	512
6	0	0	0	0	533	511
7	0	0	0	0	536	511
8	0	0	0	0	533	511
9	0	0	0	0	525	511
10	0	0	0	0	515	514
11	0	0	0	0	498	506
12	0	0	0	0	483	506
13	0	0	0	0	478	503
14	0	0	0	0	480	506
15	0	0	0	0	481	511
0	0	0	0	0	489	516
1	0	0	0	0	497	521
2	0	0	0	0	505	526
3	0	0	0	0	512	528
4	0	0	0	0	515	526
5	0	0	0	0	516	519
6	0	0	0	0	518	508
7	0	0	0	0	519	500
8	0	0	0	0	542	504
9	0	0	0	0	588	507
10	0	0	0	0	604	513
11	0	0	0	0	607	517
12	0	0	0	0	602	511
13	0	0	0	0	568	506
14	0	0	0	0	513	503
15	0	0	0	0	451	497
0	0	0	0	0	391	487
1	0	0	0	0	345	478
2	0	0	0	0	329	495
3	0	0	0	0	347	521
4	0	0	0	0	394	544
5	0	0	0	0	447	563
6	0	0	0	0	489	569
7	0	0	0	0	515	571
8	0	0	0	0	539	560
9	0	0	0	0	552	536
10	0	0	0	0	555	512
11	0	0	0	0	555	496
12	0	0	0	0	559	489
13	0	0	0	0	552	489
14	0	0	0	0	547	492
15	0	0	0	0	540	492
0	0	0	0	0	539	491
1	0	0	0	0	537	495
2	0	0	0	0	535	487
3	0	0	0	0	529	492
4	0	0	0	0	526	503
5	0	0	0	0	523	513
6	0	0	0	0	516	522
7	0	0	0	0	512	526
8	0	0	0	0	510	525
9	0	0	0	0	506	523
10	0	0	0	0	505	517
11	0	0	0	0	508	507
12	0	0	0	0	512	502
13	0	0	0	0	527	496
14	0	0	0	0	540	479
15	0	0	0	0	547	491
0	0	0	0	0	548	510
1	0	0	0	0	543	524
2	0	0	0	0	539	532
3	0	0	0	0	517	536
4	0	0	0	0	500	541
5	0	0	0	0	480	540
6	0	0	0	0	465	527
7	0	0	0	0	456	518
8	0	0	0	0	452	516
9	0	0	0	0	460	511
10	0	0	0	0	469	508
11	0	0	0	0	492	504
12	0	0	0	0	518	499
13	0	0	0	0	539	502
14	0	0	0	0	547	503
15	0	0	0	0	550	503
0	0	0	0	0	547	498
1	0	0	0	0	541	495
2	0	0	0	0	536	479
3	0	0	0	0	511	463
4	0	0	0	0	478	475
5	0	0	0	0	449	504
6	0	0	0	0	431	530
7	0	0	0	0	424	551
8	0	0	0	0	426	565
9	0	0	0	0	442	579
10	0	0	0	0	461	579
11	0	0	0	0	492	552
12	0	0	0	0	519	530
13	0	0	0	0	543	510
14	0	0	0	0	551	503
15	0	0	0	0	553	499
0	0	0	0	0	552	491
1	0	0	0	0	547	493
2	0	0	0	0	543	492
3	0	0	0	0	544	494
4	0	0	0	0	547	496
5	0	0	0	0	547	494
6	0	0	0	0	538	498
7	0	0	0	0	528	505
8	0	0	0	0	518	510
9	0	0	0	0	510	516
10	0	0	0	0	500	519
11	0	0	0	0	499	508
12	0	0	0	0	491	500
13	0	0	0	0	494	498
14	0	0	0	0	498	504
15	0	0	0	0	501	494
0	0	0	0	0	504	494
1	0	0	0	0	509	512
2	0	0	0	0	510	534
3	0	0	0	0	513	538
4	0	0	0	0	517	534
5	0	0	0	0	513	531
6	0	0	0	0	516	531
7	0	0	0	0	520	527
8	0	0	0	0	523	516
9	0	0	0	0	520	514
10	0	0	0	0	524	518
11	0	0	0	0	527	519
12	0	0	0	0	532	516
13	0	0	0	0	537	515
14	0	0	0	0	535	513
15	0	0	0	0	525	510
0	0	0	0	0	508	512
1	0	0	0	0	489	504
2	0	0	0	0	474	498
3	0	0	0	0	461	496
4	0	0	0	0	445	499
5	0	0	0	0	447	505
6	0	0	0	0	461	508
7	0	0	0	0	481	512
8	0	0	0	0	496	512
9	0	0	0	0	515	507
10	0	0	0	0	522	505
11	0	0	0	0	539	508
12	0	0	0	0	561	511
13	0	0	0	0	582	514
14	0	0	0	0	596	520
15	0	0	0	0	604	523
0	0	0	0	0	592	520
1	0	0	0	0	559	517
2	0	0	0	0	510	513
3	0	0	0	0	463	510
4	0	0	0	0	419	512
5	0	0	0	0	384	509
6	0	0	0	0	373	510
7	0	0	0	0	387	508
8	0	0	0	0	415	509
9	0	0	0	0	467	511
10	0	0	0	0	513	511
11	0	0	0	0	543	512
12	0	0	0	0	575	514
13	0	0	0	0	599	512
14	0	0	0	0	589	513
15	0	0	0	0	572	512
0	0	0	0	0	543	505
1	0	0	0	0	517	500
2	0	0	0	0	492	500
3	0	0	0	0	466	506
4	0	0	0	0	441	515
5	0	0	0	0	437	520
6	0	0	0	0	464	521
7	0	0	0	0	493	523
8	0	0	0	0	522	518
9	0	0	0	0	540	507
10	0	0	0	0	543	495
11	0	0	0	0	541	493
12	0	0	0	0	543	505
13	0	0	0	0	541	521
14	0	0	0	0	536	534
15	0	0	0	0	529	542
0	0	0	0	0	516	550
1	0	0	0	0	509	545
2	0	0	0	0	502	527
3	0	0	0	0	499	512
4	0	0	0	0	500	500
5	0	0	0	0	507	492
6	0	0	0	0	513	487
7	0	0	0	0	520	483
8	0	0	0	0	525	487
9	0	0	0	0	528	501
10	0	0	0	0	528	510
11	0	0	0	0	519	518
12	0	0	0	0	508	518
13	0	0	0	0	506	504
14	0	0	0	0	503	500
15	0	0	0	0	497	510
0	0	0	0	0	492	531
1	0	0	0	0	484	544
2	0	0	0	0	488	544
3	0	0	0	0	497	535
4	0	0	0	0	513	527
5	0	0	0	0	521	520
6	0	0	0	0	526	513
7	0	0	0	0	530	510
8	0	0	0	0	527	506
9	0	0	0	0	517	503
10	0	0	0	0	506	504
11	0	0	0	0	498	502
12	0	0	0	0	490	486
13	0	0	0	0	484	475
14	0	0	0	0	494	483
15	0	0	0	0	504	499
0	0	0	0	0	507	520
1	0	0	0	0	513	528
2	0	0	0	0	524	528
3	0	0	0	0	543	532
4	0	0	0	0	547	529
5	0	0	0	0	547	529
6	0	0	0	0	540	520
7	0	0	0	0	532	512
8	0	0	0	0	514	511
9	0	0	0	0	492	511
10	0	0	0	0	471	507
11	0	0	0	0	453	503
12	0	0	0	0	454	504
13	0	0	0	0	473	512
14	0	0	0	0	495	511
15	0	0	0	0	510	509
0	0	0	0	0	516	509
1	0	0	0	0	519	509
2	0	0	0	0	526	511
3	0	0	0	0	530	511
4	0	0	0	0	550	511
5	0	0	0	0	570	508
6	0	0	0	0	572	510
7	0	0	0	0	561	511
8	0	0	0	0	531	512
9	0	0	0	0	511	514
10	0	0	0	0	493	512
11	0	0	0	0	459	515
12	0	0	0	0	422	515
13	0	0	0	0	404	514
14	0	0	0	0	400	500
15	0	0	0	0	422	495
0	0	0	0	0	456	495
1	0	0	0	0	480	500
2	0	0	0	0	492	510
3	0	0	0	0	508	520
4	0	0	0	0	530	527
5	0	0	0	0	544	534
6	0	0	0	0	556	534
7	0	0	0	0	555	534
8	0	0	0	0	545	518
9	0	0	0	0	542	507
10	0	0	0	0	531	503
11	0	0	0	0	525	506
12	0	0	0	0	521	508
13	0	0	0	0	523	499
14	0	0	0	0	523	493
15	0	0	0	0	523	494
0	0	0	0	0	520	506
1	0	0	0	0	523	523
2	0	0	0	0	522	533
3	0	0	0	0	522	548
4	0	0	0	0	517	545
5	0	0	0	0	516	524
6	0	0	0	0	517	512
7	0	0	0	0	519	516
8	0	0	0	0	526	519
9	0	0	0	0	524	516
10	0	0	0	0	528	513
11	0	0	0	0	544	511
12	0	0	0	0	548	510
13	0	0	0	0	540	509
14	0	0	0	0	532	505
15	0	0	0	0	518	502
0	0	0	0	0	499	496
1	0	0	0	0	475	496
2	0	0	0	0	448	504
3	0	0	0	0	431	507
4	0	0	0	0	430	504
5	0	0	0	0	439	488
6	0	0	0	0	456	494
7	0	0	0	0	480	507
8	0	0	0	0	515	516
9	0	0	0	0	545	525
10	0	0	0	0	560	529
11	0	0	0	0	567	531
12	0	0	0	0	566	535
13	0	0	0	0	551	534
14	0	0	0	0	529	523
15	0	0	0	0	510	514
0	0	0	0	0	519	508
1	0	0	0	0	562	505
2	0	0	0	0	584	504
3	0	0	0	0	588	508
4	0	0	0	0	585	510
5	0	0	0	0	573	511
6	0	0	0	0	523	508
7	0	0	0	0	454	511
8	0	0	0	0	390	511
9	0	0	0	0	328	511
10	0	0	0	0	304	505
11	0	0	0	0	327	508
12	0	0	0	0	387	509
13	0	0	0	0	467	510
14	0	0	0	0	532	511
15	0	0	0	0	567	501
0	0	0	0	0	591	489
1	0	0	0	0	590	495
2	0	0	0	0	563	506
3	0	0	0	0	550	513
4	0	0	0	0	569	521
5	0	0	0	0	575	535
6	0	0	0	0	583	544
7	0	0	0	0	570	547
8	0	0	0	0	560	531
9	0	0	0	0	541	512
10	0	0	0	0	506	507
11	0	0	0	0	479	496
12	0	0	0	0	441	494
13	0	0	0	0	399	498
14	0	0	0	0	391	498
15	0	0	0	0	418	504
0	0	0	0	0	440	510
1	0	0	0	0	463	512
2	0	0	0	0	483	518
3	0	0	0	0	508	526
4	0	0	0	0	531	526
5	0	0	0	0	545	525
6	0	0	0	0	545	522
7	0	0	0	0	547	516
8	0	0	0	0	587	513
9	0	0	0	0	622	511
10	0	0	0	0	615	507
11	0	0	0	0	594	495
12	0	0	0	0	562	500
13	0	0	0	0	516	508
14	0	0	0	0	473	518
15	0	0	0	0	448	522
0	0	0	0	0	434	524
1	0	0	0	0	438	515
2	0	0	0	0	478	511
3	0	0	0	0	514	510
4	0	0	0	0	527	507
5	0	0	0	0	525	511
6	0	0	0	0	512	511
7	0	0	0	0	496	511
8	0	0	0	0	487	512
9	0	0	0	0	487	511
10	0	0	0	0	486	506
11	0	0	0	0	500	491
12	0	0	0	0	531	487
13	0	0	0	0	561	500
14	0	0	0	0	599	516
15	0	0	0	0	609	533
0	0	0	0	0	597	537
1	0	0	0	0	574	536
2	0	0	0	0	542	537
3	0	0	0	0	502	526
4	0	0	0	0	481	516
5	0	0	0	0	444	511
6	0	0	0	0	435	504
7	0	0	0	0	446	504
8	0	0	0	0	449	504
9	0	0	0	0	461	502
10	0	0	0	0	455	503
11	0	0	0	0	451	507
12	0	0	0	0	451	501
13	0	0	0	0	461	496
14	0	0	0	0	476	495
15	0	0	0	0	503	497
0	0	0	0	0	523	508
1	0	0	0	0	552	513
2	0	0	0	0	574	525
3	0	0	0	0	595	539
4	0	0	0	0	640	547
5	0	0	0	0	658	542
6	0	0	0	0	635	530
7	0	0	0	0	587	517
8	0	0	0	0	523	508
9	0	0	0	0	444	507
10	0	0	0	0	370	503
11	0	0	0	0	308	502
12	0	0	0	0	303	503
13	0	0	0	0	359	504
14	0	0	0	0	445	505
15	0	0	0	0	561	505
0	0	0	0	0	662	504
1	0	0	0	0	713	499
2	0	0	0	0	683	499
3	0	0	0	0	627	506
4	0	0	0	0	550	511
5	0	0	0	0	467	519
6	0	0	0	0	387	524
7	0	0	0	0	322	527
8	0	0	0	0	303	524
9	0	0	0	0	348	518
10	0	0	0	0	421	512
11	0	0	0	0	481	505
12	0	0	0	0	524	500
13	0	0	0	0	563	500
14	0	0	0	0	578	505
15	0	0	0	0	585	511
0	0	0	0	0	598	520
1	0	0	0	0	596	524
2	0	0	0	0	584	523
3	0	0	0	0	575	524
4	0	0	0	0	564	527
5	0	0	0	0	562	522
6	0	0	0	0	577	514
7	0	0	0	0	583	511
8	0	0	0	0	591	506
9	0	0	0	0	620	504
10	0	0	0	0	597	508
11	0	0	0	0	527	510
12	0	0	0	0	455	506
13	0	0	0	0	378	497
14	0	0	0	0	326	492
15	0	0	0	0	308	492
0	0	0	0	0	313	498
1	0	0	0	0	335	508
2	0	0	0	0	417	519
3	0	0	0	0	505	519
4	0	0	0	0	563	518
5	0	0	0	0	580	522
6	0	0	0	0	576	525
7	0	0	0	0	558	529
8	0	0	0	0	539	528
9	0	0	0	0	540	530
10	0	0	0	0	555	532
11	0	0	0	0	575	531
12	0	0	0	0	615	524
13	0	0	0	0	659	511
14	0	0	0	0	668	504
15	0	0	0	0	638	502
0	0	0	0	0	596	505
1	0	0	0	0	525	494
2	0	0	0	0	430	491
3	0	0	0	0	363	498
4	0	0	0	0	325	504
5	0	0	0	0	300	512
6	0	0	0	0	297	518
7	0	0	0	0	316	521
8	0	0	0	0	366	519
9	0	0	0	0	454	515
10	0	0	0	0	531	512
11	0	0	0	0	574	508
12	0	0	0	0	588	506
13	0	0	0	0	585	504
14	0	0	0	0	592	504
15	0	0	0	0	605	507
0	0	0	0	0	608	506
1	0	0	0	0	601	505
2	0	0	0	0	583	511
3	0	0	0	0	565	513
4	0	0	0	0	544	504
5	0	0	0	0	517	499
6	0	0	0	0	492	503
7	0	0	0	0	500	515
8	0	0	0	0	510	524
9	0	0	0	0	506	526
10	0	0	0	0	507	535
11	0	0	0	0	499	532
12	0	0	0	0	491	530
13	0	0	0	0	480	527
14	0	0	0	0	468	522
15	0	0	0	0	466	521
0	0	0	0	0	490	519
1	0	0	0	0	513	516
2	0	0	0	0	524	512
3	0	0	0	0	528	508
4	0	0	0	0	531	509
5	0	0	0	0	545	508
6	0	0	0	0	562	508
7	0	0	0	0	587	504
8	0	0	0	0	618	492
9	0	0	0	0	620	483
10	0	0	0	0	593	489
11	0	0	0	0	547	499
12	0	0	0	0	492	513
13	0	0	0	0	415	521
14	0	0	0	0	346	526
15	0	0	0	0	300	527
0	0	0	0	0	325	525
1	0	0	0	0	374	515
2	0	0	0	0	434	507
3	0	0	0	0	468	511
4	0	0	0	0	496	515
5	0	0	0	0	537	519
6	0	0	0	0	583	525
7	0	0	0	0	635	524
8	0	0	0	0	650	520
9	0	0	0	0	632	515
10	0	0	0	0	591	509
11	0	0	0	0	533	505
12	0	0	0	0	477	503
13	0	0	0	0	427	506
14	0	0	0	0	408	505
15	0	0	0	0	435	502
0	0	0	0	0	471	494
1	0	0	0	0	511	497
2	0	0	0	0	542	504
3	0	0	0	0	548	498
4	0	0	0	0	531	497
5	0	0	0	0	495	504
6	0	0	0	0	490	513
7	0	0	0	0	507	519
8	0	0	0	0	531	527
9	0	0	0	0	530	532
10	0	0	0	0	519	537
11	0	0	0	0	527	533
12	0	0	0	0	527	528
13	0	0	0	0	502	534
14	0	0	0	0	474	531
15	0	0	0	0	487	522
0	0	0	0	0	527	519
1	0	0	0	0	573	518
2	0	0	0	0	598	515
3	0	0	0	0	583	508
4	0	0	0	0	551	501
5	0	0	0	0	515	498
6	0	0	0	0	458	497
7	0	0	0	0	412	500
8	0	0	0	0	373	503
9	0	0	0	0	378	503
10	0	0	0	0	423	505
11	0	0	0	0	488	506
12	0	0	0	0	519	507
13	0	0	0	0	532	509
14	0	0	0	0	545	507
15	0	0	0	0	550	510
0	0	0	0	0	559	508
1	0	0	0	0	574	508
2	0	0	0	0	603	509
3	0	0	0	0	629	505
4	0	0	0	0	633	507
5	0	0	0	0	603	511
6	0	0	0	0	566	518
7	0	0	0	0	532	522
8	0	0	0	0	475	524
9	0	0	0	0	403	524
10	0	0	0	0	368	526
11	0	0	0	0	368	527
12	0	0	0	0	410	519
13	0	0	0	0	436	513
14	0	0	0	0	448	508
15	0	0	0	0	485	506
0	0	0	0	0	517	505
1	0	0	0	0	543	502
2	0	0	0	0	556	502
3	0	0	0	0	544	502
4	0	0	0	0	533	509
5	0	0	0	0	512	511
6	0	0	0	0	496	515
7	0	0	0	0	487	519
8	0	0	0	0	486	515
9	0	0	0	0	499	505
10	0	0	0	0	513	499
11	0	0	0	0	539	496
12	0	0	0	0	560	499
13	0	0	0	0	573	506
14	0	0	0	0	576	516
15	0	0	0	0	562	533
0	0	0	0	0	541	549
1	0	0	0	0	516	549
2	0	0	0	0	489	539
3	0	0	0	0	479	524
4	0	0	0	0	466	511
5	0	0	0	0	456	507
6	0	0	0	0	474	503
7	0	0	0	0	516	492
8	0	0	0	0	540	490
9	0	0	0	0	543	501
10	0	0	0	0	543	520
11	0	0	0	0	531	534
12	0	0	0	0	517	528
13	0	0	0	0	493	521
14	0	0	0	0	478	520
15	0	0	0	0	515	514
0	0	0	0	0	571	505
1	0	0	0	0	588	498
2	0	0	0	0	568	492
3	0	0	0	0	524	497
4	0	0	0	0	473	505
5	0	0	0	0	428	518
6	0	0	0	0	391	527
7	0	0	0	0	379	529
8	0	0	0	0	407	522
9	0	0	0	0	438	520
10	0	0	0	0	462	512
11	0	0	0	0	494	506
12	0	0	0	0	521	503
13	0	0	0	0	543	502
14	0	0	0	0	549	500
15	0	0	0	0	567	506
0	0	0	0	0	606	507
1	0	0	0	0	620	511
2	0	0	0	0	620	511
3	0	0	0	0	597	514
4	0	0	0	0	587	515
5	0	0	0	0	599	513
6	0	0	0	0	579	511
7	0	0	0	0	532	512
8	0	0	0	0	474	516
9	0	0	0	0	418	513
10	0	0	0	0	372	512
11	0	0	0	0	344	513
12	0	0	0	0	364	514
13	0	0	0	0	423	515
14	0	0	0	0	497	508
15	0	0	0	0	561	503
0	0	0	0	0	595	510
1	0	0	0	0	584	508
2	0	0	0	0	528	510
3	0	0	0	0	440	518
4	0	0	0	0	388	530
5	0	0	0	0	414	539
6	0	0	0	0	456	537
7	0	0	0	0	480	529
8	0	0	0	0	493	519
9	0	0	0	0	507	507
10	0	0	0	0	521	501
11	0	0	0	0	551	497
12	0	0	0	0	569	497
13	0	0	0	0	571	500
14	0	0	0	0	563	505
15	0	0	0	0	555	508
0	0	0	0	0	547	507
1	0	0	0	0	540	502
2	0	0	0	0	535	504
3	0	0	0	0	531	511
4	0	0	0	0	526	512
5	0	0	0	0	523	507
6	0	0	0	0	517	506
7	0	0	0	0	511	508
8	0	0	0	0	509	510
9	0	0	0	0	507	511
10	0	0	0	0	507	509
11	0	0	0	0	505	512
12	0	0	0	0	506	516
13	0	0	0	0	508	521
14	0	0	0	0	507	524
15	0	0	0	0	505	523
0	0	0	0	0	508	515
1	0	0	0	0	509	514
2	0	0	0	0	507	504
3	0	0	0	0	506	497
4	0	0	0	0	503	503
5	0	0	0	0	502	507
6	0	0	0	0	504	511
7	0	0	0	0	505	520
8	0	0	0	0	505	527
9	0	0	0	0	504	527
10	0	0	0	0	506	526
11	0	0	0	0	506	521
12	0	0	0	0	509	504
13	0	0	0	0	513	499
14	0	0	0	0	517	499
15	0	0	0	0	529	499
0	0	0	0	0	551	507
1	0	0	0	0	569	504
2	0	0	0	0	568	511
3	0	0	0	0	543	527
4	0	0	0	0	514	531
5	0	0	0	0	472	537
6	0	0	0	0	426	537
7	0	0	0	0	400	535
8	0	0	0	0	409	528
9	0	0	0	0	464	510
10	0	0	0	0	524	507
11	0	0	0	0	561	501
12	0	0	0	0	571	500
13	0	0	0	0	567	506
14	0	0	0	0	580	513
15	0	0	0	0	610	517
0	0	0	0	0	615	518
1	0	0	0	0	567	519
2	0	0	0	0	505	513
3	0	0	0	0	444	506
4	0	0	0	0	382	502
5	0	0	0	0	315	502
6	0	0	0	0	282	501
7	0	0	0	0	326	499
8	0	0	0	0	437	497
9	0	0	0	0	525	495
10	0	0	0	0	569	498
11	0	0	0	0	570	507
12	0	0	0	0	560	514
13	0	0	0	0	562	519
14	0	0	0	0	583	521
15	0	0	0	0	569	524
0	0	0	0	0	544	527
1	0	0	0	0	536	527
2	0	0	0	0	513	519
3	0	0	0	0	481	518
4	0	0	0	0	461	518
5	0	0	0	0	471	517
6	0	0	0	0	499	516
7	0	0	0	0	546	510
8	0	0	0	0	598	501
9	0	0	0	0	610	502
10	0	0	0	0	601	506
11	0	0	0	0	568	508
12	0	0	0	0	527	512
13	0	0	0	0	491	514
14	0	0	0	0	455	515
15	0	0	0	0	423	515
0	0	0	0	0	433	512
1	0	0	0	0	472	509
2	0	0	0	0	504	511
3	0	0	0	0	526	510
4	0	0	0	0	529	510
5	0	0	0	0	527	512
6	0	0	0	0	516	511
7	0	0	0	0	502	511
8	0	0	0	0	483	512
9	0	0	0	0	480	513
10	0	0	0	0	476	512
11	0	0	0	0	491	511
12	0	0	0	0	509	512
13	0	0	0	0	526	513
14	0	0	0	0	537	512
15	0	0	0	0	553	512
0	0	0	0	0	571	510
1	0	0	0	0	568	510
2	0	0	0	0	559	511
3	0	0	0	0	541	507
4	0	0	0	0	523	505
5	0	0	0	0	503	509
6	0	0	0	0	473	505
7	0	0	0	0	450	508
8	0	0	0	0	455	508
9	0	0	0	0	494	509
10	0	0	0	0	537	510
11	0	0	0	0	571	521
12	0	0	0	0	591	535
13	0	0	0	0	583	532
14	0	0	0	0	557	526
15	0	0	0	0	508	525
0	0	0	0	0	444	531
1	0	0	0	0	394	534
2	0	0	0	0	389	524
3	0	0	0	0	397	518
4	0	0	0	0	413	513
5	0	0	0	0	451	513
6	0	0	0	0	491	508
7	0	0	0	0	523	504
8	0	0	0	0	543	500
9	0	0	0	0	543	497
10	0	0	0	0	557	497
11	0	0	0	0	579	494
12	0	0	0	0	609	478
13	0	0	0	0	621	456
14	0	0	0	0	612	460
15	0	0	0	0	592	488
0	0	0	0	0	547	524
1	0	0	0	0	492	549
2	0	0	0	0	437	563
3	0	0	0	0	403	567
4	0	0	0	0	400	570
5	0	0	0	0	405	561
6	0	0	0	0	433	539
7	0	0	0	0	447	513
8	0	0	0	0	448	499
9	0	0	0	0	459	493
10	0	0	0	0	489	496
11	0	0	0	0	515	504
12	0	0	0	0	542	505
13	0	0	0	0	555	503
14	0	0	0	0	553	499
15	0	0	0	0	553	499
0	0	0	0	0	551	503
1	0	0	0	0	542	501
2	0	0	0	0	536	505
3	0	0	0	0	531	505
4	0	0	0	0	531	509
5	0	0	0	0	538	511
6	0	0	0	0	556	514
7	0	0	0	0	575	510
8	0	0	0	0	600	508
9	0	0	0	0	595	508
10	0	0	0	0	568	511
11	0	0	0	0	517	512
12	0	0	0	0	458	516
13	0	0	0	0	403	517
14	0	0	0	0	378	520
15	0	0	0	0	365	524
0	0	0	0	0	399	516
1	0	0	0	0	463	510
2	0	0	0	0	505	507
3	0	0	0	0	528	507
4	0	0	0	0	551	508
5	0	0	0	0	580	509
6	0	0	0	0	616	512
7	0	0	0	0	614	518
8	0	0	0	0	590	519
9	0	0	0	0	548	514
10	0	0	0	0	490	505
11	0	0	0	0	436	499
12	0	0	0	0	408	490
13	0	0	0	0	403	479
14	0	0	0	0	432	486
15	0	0	0	0	477	499
0	0	0	0	0	520	528
1	0	0	0	0	543	549
2	0	0	0	0	549	563
3	0	0	0	0	543	563
4	0	0	0	0	540	553
5	0	0	0	0	547	537
6	0	0	0	0	545	524
7	0	0	0	0	543	512
8	0	0	0	0	523	503
9	0	0	0	0	490	497
10	0	0	0	0	475	496
11	0	0	0	0	471	497
12	0	0	0	0	481	501
13	0	0	0	0	499	499
14	0	0	0	0	522	502
15	0	0	0	0	525	504
0	0	0	0	0	516	500
1	0	0	0	0	497	482
2	0	0	0	0	488	480
3	0	0	0	0	499	490
4	0	0	0	0	537	509
5	0	0	0	0	576	518
6	0	0	0	0	582	521
7	0	0	0	0	563	534
8	0	0	0	0	529	541
9	0	0	0	0	496	535
10	0	0	0	0	466	521
11	0	0	0	0	451	508
12	0	0	0	0	452	512
13	0	0	0	0	466	523
14	0	0	0	0	486	526
15	0	0	0	0	491	527
0	0	0	0	0	489	523
1	0	0	0	0	492	521
2	0	0	0	0	492	516
3	0	0	0	0	496	508
4	0	0	0	0	510	503
5	0	0	0	0	519	500
6	0	0	0	0	529	501
7	0	0	0	0	536	502
8	0	0	0	0	536	502
9	0	0	0	0	531	502
10	0	0	0	0	526	504
11	0	0	0	0	526	502
12	0	0	0	0	523	494
13	0	0	0	0	517	494
14	0	0	0	0	512	502
15	0	0	0	0	511	513
0	0	0	0	0	511	521
1	0	0	0	0	514	521
2	0	0	0	0	510	528
3	0	0	0	0	509	531
4	0	0	0	0	510	534
5	0	0	0	0	507	531
6	0	0	0	0	507	521
7	0	0	0	0	509	514
8	0	0	0	0	510	512
9	0	0	0	0	509	513
10	0	0	0	0	508	510
11	0	0	0	0	509	508
12	0	0	0	0	506	501
13	0	0	0	0	507	490
14	0	0	0	0	508	487
15	0	0	0	0	506	494
0	0	0	0	0	507	504
1	0	0	0	0	505	515
2	0	0	0	0	508	522
3	0	0	0	0	509	529
4	0	0	0	0	511	531
5	0	0	0	0	510	521
6	0	0	0	0	511	500
7	0	0	0	0	509	492
8	0	0	0	0	508	499
9	0	0	0	0	505	510
10	0	0	0	0	500	528
11	0	0	0	0	501	539
12	0	0	0	0	504	542
13	0	0	0	0	507	541
14	0	0	0	0	506	532
15	0	0	0	0	506	519
0	0	0	0	0	511	500
1	0	0	0	0	512	492
2	0	0	0	0	514	493
3	0	0	0	0	512	497
4	0	0	0	0	507	502
5	0	0	0	0	507	508
6	0	0	0	0	505	509
7	0	0	0	0	513	513
8	0	0	0	0	556	510
9	0	0	0	0	590	502
10	0	0	0	0	596	491
11	0	0	0	0	583	489
12	0	0	0	0	541	492
13	0	0	0	0	489	503
14	0	0	0	0	419	517
15	0	0	0	0	367	529
0	0	0	0	0	345	543
1	0	0	0	0	375	551
2	0	0	0	0	429	553
3	0	0	0	0	487	542
4	0	0	0	0	531	528
5	0	0	0	0	551	524
6	0	0	0	0	559	512
7	0	0	0	0	553	503
8	0	0	0	0	549	498
9	0	0	0	0	540	496
10	0	0	0	0	531	499
11	0	0	0	0	524	503
12	0	0	0	0	519	504
13	0	0	0	0	517	506
14	0	0	0	0	520	507
15	0	0	0	0	528	505
0	0	0	0	0	526	508
1	0	0	0	0	521	510
2	0	0	0	0	515	510
3	0	0	0	0	512	510
4	0	0	0	0	523	505
5	0	0	0	0	534	505
6	0	0	0	0	535	507
7	0	0	0	0	526	508
8	0	0	0	0	512	511
9	0	0	0	0	495	513
10	0	0	0	0	478	518
11	0	0	0	0	456	521
12	0	0	0	0	455	512
13	0	0	0	0	472	500
14	0	0	0	0	502	498
15	0	0	0	0	520	509
0	0	0	0	0	523	517
1	0	0	0	0	524	528
2	0	0	0	0	522	532
3	0	0	0	0	517	535
4	0	0	0	0	511	524
5	0	0	0	0	515	515
6	0	0	0	0	519	512
7	0	0	0	0	519	507
8	0	0	0	0	526	502
9	0	0	0	0	530	498
10	0	0	0	0	529	503
11	0	0	0	0	527	514
12	0	0	0	0	524	504
13	0	0	0	0	517	494
14	0	0	0	0	511	501
15	0	0	0	0	498	516
0	0	0	0	0	494	523
1	0	0	0	0	491	527
2	0	0	0	0	488	531
3	0	0	0	0	486	537
4	0	0	0	0	487	536
5	0	0	0	0	497	519
6	0	0	0	0	504	507
7	0	0	0	0	511	504
8	0	0	0	0	511	492
9	0	0	0	0	508	494
10	0	0	0	0	510	500
11	0	0	0	0	507	511
12	0	0	0	0	504	519
13	0	0	0	0	507	521
14	0	0	0	0	511	515
15	0	0	0	0	518	512
0	0	0	0	0	521	513
1	0	0	0	0	523	515
2	0	0	0	0	526	519
3	0	0	0	0	522	523
4	0	0	0	0	516	521
5	0	0	0	0	512	516
6	0	0	0	0	511	515
7	0	0	0	0	520	512
8	0	0	0	0	533	505
9	0	0	0	0	548	503
10	0	0	0	0	553	506
11	0	0	0	0	542	505
12	0	0	0	0	519	504
13	0	0	0	0	485	505
14	0	0	0	0	462	507
15	0	0	0	0	446	507
0	0	0	0	0	445	508
1	0	0	0	0	464	507
2	0	0	0	0	487	507
3	0	0	0	0	498	508
4	0	0	0	0	497	511
5	0	0	0	0	492	514
6	0	0	0	0	498	517
7	0	0	0	0	505	516
8	0	0	0	0	514	516
9	0	0	0	0	523	517
10	0	0	0	0	535	518
11	0	0	0	0	538	514
12	0	0	0	0	534	512
13	0	0	0	0	530	510
14	0	0	0	0	526	511
15	0	0	0	0	526	511
0	0	0	0	0	538	508
1	0	0	0	0	550	509
2	0	0	0	0	550	504
3	0	0	0	0	540	500
4	0	0	0	0	519	500
5	0	0	0	0	498	502
6	0	0	0	0	479	503
7	0	0	0	0	459	503
8	0	0	0	0	449	498
9	0	0	0	0	452	500
10	0	0	0	0	468	511
11	0	0	0	0	512	530
12	0	0	0	0	563	548
13	0	0	0	0	591	560
14	0	0	0	0	591	562
15	0	0	0	0	570	558
0	0	0	0	0	530	522
1	0	0	0	0	484	492
2	0	0	0	0	437	483
3	0	0	0	0	407	490
4	0	0	0	0	403	499
5	0	0	0	0	419	506
6	0	0	0	0	452	505
7	0	0	0	0	500	518
8	0	0	0	0	535	521
9	0	0	0	0	552	503
10	0	0	0	0	551	482
11	0	0	0	0	542	486
12	0	0	0	0	532	505
13	0	0	0	0	524	528
14	0	0	0	0	515	540
15	0	0	0	0	508	545
0	0	0	0	0	510	551
1	0	0	0	0	516	547
2	0	0	0	0	521	535
3	0	0	0	0	520	519
4	0	0	0	0	522	503
5	0	0	0	0	520	495
6	0	0	0	0	519	494
7	0	0	0	0	519	494
8	0	0	0	0	517	496
9	0	0	0	0	514	497
10	0	0	0	0	513	499
11	0	0	0	0	512	500
12	0	0	0	0	511	503
13	0	0	0	0	512	505
14	0	0	0	0	511	508
15	0	0	0	0	509	508
0	0	0	0	0	508	507
1	0	0	0	0	509	505
2	0	0	0	0	512	510
3	0	0	0	0	512	512
4	0	0	0	0	519	512
5	0	0	0	0	519	514
6	0	0	0	0	517	518
7	0	0	0	0	511	519
8	0	0	0	0	504	520
9	0	0	0	0	508	516
10	0	0	0	0	516	515
11	0	0	0	0	529	511
12	0	0	0	0	544	511
13	0	0	0	0	550	512
14	0	0	0	0	543	512
15	0	0	0	0	523	512
0	0	0	0	0	491	513
1	0	0	0	0	462	512
2	0	0	0	0	448	510
3	0	0	0	0	444	510
4	0	0	0	0	457	511
5	0	0	0	0	472	514
6	0	0	0	0	481	515
7	0	0	0	0	488	512
8	0	0	0	0	495	508
9	0	0	0	0	502	504
10	0	0	0	0	514	504
11	0	0	0	0	542	505
12	0	0	0	0	582	511
13	0	0	0	0	618	518
14	0	0	0	0	623	524
15	0	0	0	0	587	528
0	0	0	0	0	528	524
1	0	0	0	0	468	518
2	0	0	0	0	409	511
3	0	0	0	0	376	508
4	0	0	0	0	371	501
5	0	0	0	0	375	498
6	0	0	0	0	427	508
7	0	0	0	0	489	518
8	0	0	0	0	535	524
9	0	0	0	0	557	522
10	0	0	0	0	558	521
11	0	0	0	0	555	524
12	0	0	0	0	551	520
13	0	0	0	0	543	514
14	0	0	0	0	540	509
15	0	0	0	0	537	511
0	0	0	0	0	533	516
1	0	0	0	0	528	517
2	0	0	0	0	527	514
3	0	0	0	0	523	510
4	0	0	0	0	522	505
5	0	0	0	0	519	505
6	0	0	0	0	516	508
7	0	0	0	0	515	504
8	0	0	0	0	512	505
9	0	0	0	0	509	505
10	0	0	0	0	508	508
11	0	0	0	0	510	512
12	0	0	0	0	507	515
13	0	0	0	0	510	515
14	0	0	0	0	508	512
15	0	0	0	0	508	511
0	0	0	0	0	509	512
1	0	0	0	0	508	510
2	0	0	0	0	511	509
3	0	0	0	0	514	508
4	0	0	0	0	514	512
5	0	0	0	0	518	511
6	0	0	0	0	526	516
7	0	0	0	0	529	510
8	0	0	0	0	527	496
9	0	0	0	0	519	497
10	0	0	0	0	510	510
11	0	0	0	0	492	519
12	0	0	0	0	479	527
13	0	0	0	0	468	532
14	0	0	0	0	457	533
15	0	0	0	0	460	534
0	0	0	0	0	476	527
1	0	0	0	0	501	515
2	0	0	0	0	519	508
3	0	0	0	0	528	504
4	0	0	0	0	531	503
5	0	0	0	0	531	504
6	0	0	0	0	540	502
7	0	0	0	0	551	506
8	0	0	0	0	548	507
9	0	0	0	0	537	508
10	0	0	0	0	523	509
11	0	0	0	0	506	504
12	0	0	0	0	484	507
13	0	0	0	0	462	509
14	0	0	0	0	449	512
15	0	0	0	0	461	515
0	0	0	0	0	473	518
1	0	0	0	0	492	518
2	0	0	0	0	512	509
3	0	0	0	0	527	500
4	0	0	0	0	530	492
5	0	0	0	0	525	499
6	0	0	0	0	524	511
7	0	0	0	0	521	524
8	0	0	0	0	520	538
9	0	0	0	0	521	548
10	0	0	0	0	518	547
11	0	0	0	0	519	536
12	0	0	0	0	519	522
13	0	0	0	0	516	511
14	0	0	0	0	513	503
15	0	0	0	0	510	493
0	0	0	0	0	511	492
1	0	0	0	0	509	487
2	0	0	0	0	510	491
3	0	0	0	0	509	499
4	0	0	0	0	509	512
5	0	0	0	0	508	524
6	0	0	0	0	506	529
7	0	0	0	0	501	527
8	0	0	0	0	501	524
9	0	0	0	0	503	526
10	0	0	0	0	508	520
11	0	0	0	0	512	508
12	0	0	0	0	511	504
13	0	0	0	0	512	499
14	0	0	0	0	512	496
15	0	0	0	0	512	498
0	0	0	0	0	510	494
1	0	0	0	0	511	497
2	0	0	0	0	510	502
3	0	0	0	0	510	511
4	0	0	0	0	513	521
5	0	0	0	0	511	525
6	0	0	0	0	511	524
7	0	0	0	0	509	523
8	0	0	0	0	510	525
9	0	0	0	0	509	524
10	0	0	0	0	511	518
11	0	0	0	0	511	513
12	0	0	0	0	508	513
13	0	0	0	0	508	511
14	0	0	0	0	508	509
15	0	0	0	0	509	496
0	0	0	0	0	509	493
1	0	0	0	0	509	498
2	0	0	0	0	510	507
3	0	0	0	0	510	513
4	0	0	0	0	509	522
5	0	0	0	0	510	530
6	0	0	0	0	508	536
7	0	0	0	0	512	531
8	0	0	0	0	510	517
9	0	0	0	0	509	508
10	0	0	0	0	510	507
11	0	0	0	0	508	505
12	0	0	0	0	507	493
13	0	0	0	0	508	481
14	0	0	0	0	510	490
15	0	0	0	0	510	503
0	0	0	0	0	510	516
1	0	0	0	0	511	525
2	0	0	0	0	514	531
3	0	0	0	0	513	537
4	0	0	0	0	513	535
5	0	0	0	0	511	519
6	0	0	0	0	510	490
7	0	0	0	0	508	482
8	0	0	0	0	510	493
9	0	0	0	0	513	514
10	0	0	0	0	516	526
11	0	0	0	0	524	533
12	0	0	0	0	543	539
13	0	0	0	0	545	541
14	0	0	0	0	536	532
15	0	0	0	0	520	521
0	0	0	0	0	502	510
1	0	0	0	0	485	503
2	0	0	0	0	460	501
3	0	0	0	0	438	502
4	0	0	0	0	432	503
5	0	0	0	0	462	505
6	0	0	0	0	493	506
7	0	0	0	0	512	506
8	0	0	0	0	529	507
9	0	0	0	0	547	508
10	0	0	0	0	555	508
11	0	0	0	0	547	509
12	0	0	0	0	535	511
13	0	0	0	0	523	509
14	0	0	0	0	509	507
15	0	0	0	0	491	505
0	0	0	0	0	482	504
1	0	0	0	0	472	503
2	0	0	0	0	477	509
3	0	0	0	0	494	513
4	0	0	0	0	507	519
5	0	0	0	0	512	526
6	0	0	0	0	515	528
7	0	0	0	0	521	526
8	0	0	0	0	519	521
9	0	0	0	0	519	512
10	0	0	0	0	524	509
11	0	0	0	0	525	509
12	0	0	0	0	526	510
13	0	0	0	0	519	511
14	0	0	0	0	518	513
15	0	0	0	0	517	516
0	0	0	0	0	514	514
1	0	0	0	0	513	515
2	0	0	0	0	513	511
3	0	0	0	0	510	512
4	0	0	0	0	506	508
5	0	0	0	0	501	505
6	0	0	0	0	498	505
7	0	0	0	0	494	511
8	0	0	0	0	498	512
9	0	0	0	0	503	513
10	0	0	0	0	510	514
11	0	0	0	0	513	511
12	0	0	0	0	515	512
13	0	0	0	0	516	514
14	0	0	0	0	511	519
15	0	0	0	0	514	523
0	0	0	0	0	512	523
1	0	0	0	0	512	518
2	0	0	0	0	525	519
3	0	0	0	0	543	516
4	0	0	0	0	552	511
5	0	0	0	0	563	509
6	0	0	0	0	566	504
7	0	0	0	0	549	507
8	0	0	0	0	516	507
9	0	0	0	0	479	504
10	0	0	0	0	440	496
11	0	0	0	0	423	485
12	0	0	0	0	425	470
13	0	0	0	0	430	476
14	0	0	0	0	456	504
15	0	0	0	0	492	531
0	0	0	0	0	519	550
1	0	0	0	0	531	565
2	0	0	0	0	536	574
3	0	0	0	0	534	568
4	0	0	0	0	525	548
5	0	0	0	0	515	525
6	0	0	0	0	507	501
7	0	0	0	0	517	488
8	0	0	0	0	524	485
9	0	0	0	0	520	487
10	0	0	0	0	524	490
11	0	0	0	0	523	492
12	0	0	0	0	521	496
13	0	0	0	0	515	501
14	0	0	0	0	499	502
15	0	0	0	0	486	502
0	0	0	0	0	485	505
1	0	0	0	0	496	510
2	0	0	0	0	503	513
3	0	0	0	0	509	519
4	0	0	0	0	515	519
5	0	0	0	0	514	519
6	0	0	0	0	512	520
7	0	0	0	0	512	523
8	0	0	0	0	520	515
9	0	0	0	0	524	512
10	0	0	0	0	523	509
11	0	0	0	0	524	511
12	0	0	0	0	519	512
13	0	0	0	0	519	514
14	0	0	0	0	521	511
15	0	0	0	0	520	512
0	0	0	0	0	524	512
1	0	0	0	0	529	512
2	0	0	0	0	529	514
3	0	0	0	0	524	513
4	0	0	0	0	515	512
5	0	0	0	0	500	513
6	0	0	0	0	492	511
7	0	0	0	0	481	511
8	0	0	0	0	472	512
9	0	0	0	0	472	510
10	0	0	0	0	474	511
11	0	0	0	0	479	513
12	0	0	0	0	494	514
13	0	0	0	0	510	514
14	0	0	0	0	523	515
15	0	0	0	0	529	513
0	0	0	0	0	532	515
1	0	0	0	0	530	515
2	0	0	0	0	524	518
3	0	0	0	0	516	522
4	0	0	0	0	512	519
5	0	0	0	0	511	515
6	0	0	0	0	511	511
7	0	0	0	0	512	508
8	0	0	0	0	512	498
9	0	0	0	0	511	492
10	0	0	0	0	506	494
11	0	0	0	0	507	487
12	0	0	0	0	515	484
13	0	0	0	0	529	494
14	0	0	0	0	550	516
15	0	0	0	0	547	540
0	0	0	0	0	535	555
1	0	0	0	0	514	553
2	0	0	0	0	490	548
3	0	0	0	0	464	551
4	0	0	0	0	447	536
5	0	0	0	0	440	517
6	0	0	0	0	446	503
7	0	0	0	0	473	499
8	0	0	0	0	501	497
9	0	0	0	0	519	494
10	0	0	0	0	526	496
11	0	0	0	0	529	498
12	0	0	0	0	534	504
13	0	0	0	0	530	504
14	0	0	0	0	528	505
15	0	0	0	0	528	509
0	0	0	0	0	542	510
1	0	0	0	0	556	511
2	0	0	0	0	560	510
3	0	0	0	0	548	511
4	0	0	0	0	535	512
5	0	0	0	0	521	512
6	0	0	0	0	498	510
7	0	0	0	0	470	503
8	0	0	0	0	447	500
9	0	0	0	0	434	499
10	0	0	0	0	450	504
11	0	0	0	0	476	509
12	0	0	0	0	489	504
13	0	0	0	0	511	512
14	0	0	0	0	534	527
15	0	0	0	0	540	539
0	0	0	0	0	529	540
1	0	0	0	0	524	536
2	0	0	0	0	527	528
3	0	0	0	0	532	528
4	0	0	0	0	527	519
5	0	0	0	0	518	512
6	0	0	0	0	505	504
7	0	0	0	0	500	500
8	0	0	0	0	499	499
9	0	0	0	0	489	502
10	0	0	0	0	479	505
11	0	0	0	0	485	507
12	0	0	0	0	496	507
13	0	0	0	0	506	509
14	0	0	0	0	514	508
15	0	0	0	0	520	510
0	0	0	0	0	519	511
1	0	0	0	0	518	510
2	0	0	0	0	529	511
3	0	0	0	0	544	515
4	0	0	0	0	547	516
5	0	0	0	0	546	518
6	0	0	0	0	543	518
7	0	0	0	0	531	516
8	0	0	0	0	512	515
9	0	0	0	0	492	517
10	0	0	0	0	469	515
11	0	0	0	0	455	510
12	0	0	0	0	454	509
13	0	0	0	0	462	505
14	0	0	0	0	476	502
15	0	0	0	0	504	504
0	0	0	0	0	519	506
1	0	0	0	0	524	504
2	0	0	0	0	527	509
3	0	0	0	0	527	513
4	0	0	0	0	524	512
5	0	0	0	0	520	505
6	0	0	0	0	517	509
7	0	0	0	0	515	516
8	0	0	0	0	513	521
9	0	0	0	0	516	528
10	0	0	0	0	515	530
11	0	0	0	0	515	520
12	0	0	0	0	515	510
13	0	0	0	0	515	497
14	0	0	0	0	515	486
15	0	0	0	0	513	494
0	0	0	0	0	512	510
1	0	0	0	0	511	525
2	0	0	0	0	510	537
3	0	0	0	0	509	540
4	0	0	0	0	512	531
5	0	0	0	0	519	507
6	0	0	0	0	529	487
7	0	0	0	0	527	484
8	0	0	0	0	522	488
9	0	0	0	0	513	507
10	0	0	0	0	504	520
11	0	0	0	0	497	536
12	0	0	0	0	497	553
13	0	0	0	0	500	563
14	0	0	0	0	507	556
15	0	0	0	0	511	531
0	0	0	0	0	511	514
1	0	0	0	0	510	508
2	0	0	0	0	502	503
3	0	0	0	0	491	497
4	0	0	0	0	477	492
5	0	0	0	0	475	493
6	0	0	0	0	487	494
7	0	0	0	0	503	496
8	0	0	0	0	519	499
9	0	0	0	0	542	496
10	0	0	0	0	553	492
11	0	0	0	0	546	497
12	0	0	0	0	538	500
13	0	0	0	0	519	505
14	0	0	0	0	498	512
15	0	0	0	0	480	512
0	0	0	0	0	462	521
1	0	0	0	0	459	524
2	0	0	0	0	476	524
3	0	0	0	0	495	522
4	0	0	0	0	513	523
5	0	0	0	0	527	519
6	0	0	0	0	527	519
7	0	0	0	0	521	516
8	0	0	0	0	514	511
9	0	0	0	0	507	507
10	0	0	0	0	507	503
11	0	0	0	0	511	499
12	0	0	0	0	512	503
13	0	0	0	0	530	506
14	0	0	0	0	547	512
15	0	0	0	0	549	518
0	0	0	0	0	540	517
1	0	0	0	0	526	519
2	0	0	0	0	509	518
3	0	0	0	0	494	512
4	0	0	0	0	478	504
5	0	0	0	0	471	502
6	0	0	0	0	477	504
7	0	0	0	0	489	507
8	0	0	0	0	496	512
9	0	0	0	0	504	516
10	0	0	0	0	512	523
11	0	0	0	0	514	528
12	0	0	0	0	522	524
13	0	0	0	0	524	523
14	0	0	0	0	527	515
15	0	0	0	0	539	513
0	0	0	0	0	538	512
1	0	0	0	0	528	511
2	0	0	0	0	511	512
3	0	0	0	0	493	514
4	0	0	0	0	480	514
5	0	0	0	0	483	505
6	0	0	0	0	477	481
7	0	0	0	0	483	452
8	0	0	0	0	499	460
9	0	0	0	0	505	484
10	0	0	0	0	506	515
11	0	0	0	0	500	540
12	0	0	0	0	502	561
13	0	0	0	0	507	572
14	0	0	0	0	515	572
15	0	0	0	0	520	558
0	0	0	0	0	518	541
1	0	0	0	0	515	519
2	0	0	0	0	511	501
3	0	0	0	0	512	493
4	0	0	0	0	516	494
5	0	0	0	0	516	500
6	0	0	0	0	516	508
7	0	0	0	0	522	517
8	0	0	0	0	520	517
9	0	0	0	0	519	515
10	0	0	0	0	517	511
11	0	0	0	0	515	509
12	0	0	0	0	514	506
13	0	0	0	0	512	503
14	0	0	0	0	515	500
15	0	0	0	0	517	498
0	0	0	0	0	517	504
1	0	0	0	0	524	502
2	0	0	0	0	527	496
3	0	0	0	0	527	495
4	0	0	0	0	523	498
5	0	0	0	0	512	504
6	0	0	0	0	507	511
7	0	0	0	0	497	510
8	0	0	0	0	487	502
9	0	0	0	0	483	511
10	0	0	0	0	484	519
11	0	0	0	0	487	527
12	0	0	0	0	495	533
13	0	0	0	0	501	532
14	0	0	0	0	504	538
15	0	0	0	0	512	526
0	0	0	0	0	517	516
1	0	0	0	0	519	511
2	0	0	0	0	521	505
3	0	0	0	0	518	495
4	0	0	0	0	514	492
5	0	0	0	0	504	495
6	0	0	0	0	497	496
7	0	0	0	0	496	503
8	0	0	0	0	499	512
9	0	0	0	0	502	515
10	0	0	0	0	508	510
11	0	0	0	0	512	520
12	0	0	0	0	518	526
13	0	0	0	0	523	516
14	0	0	0	0	528	509
15	0	0	0	0	527	520
0	0	0	0	0	515	527
1	0	0	0	0	502	538
2	0	0	0	0	504	540
3	0	0	0	0	502	533
4	0	0	0	0	501	527
5	0	0	0	0	495	523
6	0	0	0	0	487	518
7	0	0	0	0	499	512
8	0	0	0	0	503	510
9	0	0	0	0	508	506
10	0	0	0	0	510	505
11	0	0	0	0	516	504
12	0	0	0	0	519	500
13	0	0	0	0	528	503
14	0	0	0	0	540	500
15	0	0	0	0	547	499
0	0	0	0	0	543	503
1	0	0	0	0	529	504
2	0	0	0	0	515	504
3	0	0	0	0	503	507
4	0	0	0	0	492	510
5	0	0	0	0	480	508
6	0	0	0	0	477	511
7	0	0	0	0	484	510
8	0	0	0	0	498	511
9	0	0	0	0	505	510
10	0	0	0	0	509	510
11	0	0	0	0	511	510
12	0	0	0	0	512	507
13	0	0	0	0	511	511
14	0	0	0	0	511	513
15	0	0	0	0	513	516
0	0	0	0	0	513	519
1	0	0	0	0	512	516
2	0	0	0	0	511	515
3	0	0	0	0	511	519
4	0	0	0	0	516	516
5	0	0	0	0	524	511
6	0	0	0	0	525	476
7	0	0	0	0	527	433
8	0	0	0	0	529	406
9	0	0	0	0	524	411
10	0	0	0	0	515	465
11	0	0	0	0	510	515
12	0	0	0	0	502	567
13	0	0	0	0	498	617
14	0	0	0	0	489	661
15	0	0	0	0	486	662
0	0	0	0	0	481	621
1	0	0	0	0	476	582
2	0	0	0	0	476	544
3	0	0	0	0	487	516
4	0	0	0	0	494	496
5	0	0	0	0	496	456
6	0	0	0	0	509	438
7	0	0	0	0	519	433
8	0	0	0	0	540	398
9	0	0	0	0	548	345
10	0	0	0	0	541	324
11	0	0	0	0	529	399
12	0	0	0	0	514	519
13	0	0	0	0	501	634
14	0	0	0	0	494	701
15	0	0	0	0	482	717
0	0	0	0	0	481	670
1	0	0	0	0	494	585
2	0	0	0	0	510	531
3	0	0	0	0	518	515
4	0	0	0	0	524	507
5	0	0	0	0	527	507
6	0	0	0	0	524	480
7	0	0	0	0	523	455
8	0	0	0	0	521	427
9	0	0	0	0	517	452
10	0	0	0	0	519	495
11	0	0	0	0	523	539
12	0	0	0	0	524	575
13	0	0	0	0	532	587
14	0	0	0	0	547	576
15	0	0	0	0	556	559
0	0	0	0	0	549	521
1	0	0	0	0	527	482
2	0	0	0	0	511	450
3	0	0	0	0	486	442
4	0	0	0	0	457	448
5	0	0	0	0	438	457
6	0	0	0	0	431	440
7	0	0	0	0	442	430
8	0	0	0	0	455	464
9	0	0	0	0	480	495
10	0	0	0	0	500	540
11	0	0	0	0	517	572
12	0	0	0	0	526	585
13	0	0	0	0	530	589
14	0	0	0	0	527	582
15	0	0	0	0	531	561
0	0	0	0	0	529	531
1	0	0	0	0	527	503
2	0	0	0	0	524	487
3	0	0	0	0	523	485
4	0	0	0	0	519	489
5	0	0	0	0	518	482
6	0	0	0	0	516	474
7	0	0	0	0	517	478
8	0	0	0	0	515	486
9	0	0	0	0	513	500
10	0	0	0	0	512	513
11	0	0	0	0	511	521
12	0	0	0	0	510	531
13	0	0	0	0	514	532
14	0	0	0	0	515	531
15	0	0	0	0	527	525
0	0	0	0	0	534	511
1	0	0	0	0	534	500
2	0	0	0	0	524	496
3	0	0	0	0	511	497
4	0	0	0	0	499	504
5	0	0	0	0	491	510
6	0	0	0	0	495	515
7	0	0	0	0	494	522
8	0	0	0	0	493	528
9	0	0	0	0	493	528
10	0	0	0	0	492	519
11	0	0	0	0	487	510
12	0	0	0	0	481	507
13	0	0	0	0	476	505
14	0	0	0	0	478	509
15	0	0	0	0	494	508
0	0	0	0	0	505	510
1	0	0	0	0	518	512
2	0	0	0	0	526	513
3	0	0	0	0	529	514
4	0	0	0	0	527	518
5	0	0	0	0	524	516
6	0	0	0	0	522	512
7	0	0	0	0	519	513
8	0	0	0	0	521	515
9	0	0	0	0	521	512
10	0	0	0	0	520	505
11	0	0	0	0	523	504
12	0	0	0	0	523	505
13	0	0	0	0	518	508
14	0	0	0	0	509	513
15	0	0	0	0	504	518
0	0	0	0	0	503	526
1	0	0	0	0	505	529
2	0	0	0	0	500	521
3	0	0	0	0	494	517
4	0	0	0	0	500	510
5	0	0	0	0	507	508
6	0	0	0	0	513	503
7	0	0	0	0	520	499
8	0	0	0	0	521	502
9	0	0	0	0	522	508
10	0	0	0	0	516	513
11	0	0	0	0	514	515
12	0	0	0	0	511	513
13	0	0	0	0	505	518
14	0	0	0	0	503	521
15	0	0	0	0	503	515
0	0	0	0	0	508	504
1	0	0	0	0	515	506
2	0	0	0	0	518	511
3	0	0	0	0	517	517
4	0	0	0	0	515	523
5	0	0	0	0	509	521
6	0	0	0	0	499	520
7	0	0	0	0	489	521
8	0	0	0	0	485	519
9	0	0	0	0	485	512
10	0	0	0	0	489	508
11	0	0	0	0	493	496
12	0	0	0	0	507	494
13	0	0	0	0	514	504
14	0	0	0	0	517	507
15	0	0	0	0	521	504
0	0	0	0	0	519	508
1	0	0	0	0	519	502
2	0	0	0	0	513	503
3	0	0	0	0	508	514
4	0	0	0	0	507	520
5	0	0	0	0	510	525
6	0	0	0	0	515	524
7	0	0	0	0	518	529
8	0	0	0	0	523	538
9	0	0	0	0	524	530
10	0	0	0	0	524	498
11	0	0	0	0	519	459
12	0	0	0	0	514	465
13	0	0	0	0	515	500
14	0	0	0	0	512	528
15	0	0	0	0	507	545
0	0	0	0	0	508	557
1	0	0	0	0	518	566
2	0	0	0	0	522	565
3	0	0	0	0	521	547
4	0	0	0	0	515	524
5	0	0	0	0	506	503
6	0	0	0	0	496	492
7	0	0	0	0	488	489
8	0	0	0	0	478	491
9	0	0	0	0	471	492
10	0	0	0	0	479	493
11	0	0	0	0	495	497
12	0	0	0	0	513	499
13	0	0	0	0	522	502
14	0	0	0	0	526	504
15	0	0	0	0	525	502
0	0	0	0	0	520	502
1	0	0	0	0	516	505
2	0	0	0	0	515	509
3	0	0	0	0	507	513
4	0	0	0	0	504	513
5	0	0	0	0	505	515
6	0	0	0	0	504	515
7	0	0	0	0	509	511
8	0	0	0	0	510	508
9	0	0	0	0	511	511
10	0	0	0	0	515	512
11	0	0	0	0	518	513
12	0	0	0	0	518	519
13	0	0	0	0	518	520
14	0	0	0	0	515	522
15	0	0	0	0	514	519
0	0	0	0	0	514	513
1	0	0	0	0	513	510
2	0	0	0	0	510	513
3	0	0	0	0	510	512
4	0	0	0	0	516	508
5	0	0	0	0	522	510
6	0	0	0	0	523	511
7	0	0	0	0	521	514
8	0	0	0	0	519	515
9	0	0	0	0	520	511
10	0	0	0	0	522	508
11	0	0	0	0	517	507
12	0	0	0	0	505	505
13	0	0	0	0	497	507
14	0	0	0	0	492	513
15	0	0	0	0	484	519
0	0	0	0	0	472	522
1	0	0	0	0	464	513
2	0	0	0	0	472	500
3	0	0	0	0	483	493
4	0	0	0	0	492	490
5	0	0	0	0	504	495
6	0	0	0	0	517	499
7	0	0	0	0	526	500
8	0	0	0	0	529	523
9	0	0	0	0	529	545
10	0	0	0	0	527	552
11	0	0	0	0	525	543
12	0	0	0	0	527	536
13	0	0	0	0	532	535
14	0	0	0	0	533	533
15	0	0	0	0	532	526
0	0	0	0	0	531	515
1	0	0	0	0	524	511
2	0	0	0	0	511	514
3	0	0	0	0	499	514
4	0	0	0	0	487	512
5	0	0	0	0	484	505
6	0	0	0	0	487	500
7	0	0	0	0	492	496
8	0	0	0	0	499	494
9	0	0	0	0	509	495
10	0	0	0	0	511	497
11	0	0	0	0	515	502
12	0	0	0	0	519	504
13	0	0	0	0	519	509
14	0	0	0	0	520	506
15	0	0	0	0	523	506
0	0	0	0	0	524	509
1	0	0	0	0	521	509
2	0	0	0	0	517	510
3	0	0	0	0	513	511
4	0	0	0	0	513	517
5	0	0	0	0	507	520
6	0	0	0	0	501	519
7	0	0	0	0	504	518
8	0	0	0	0	502	515
9	0	0	0	0	497	519
10	0	0	0	0	498	515
11	0	0	0	0	503	512
12	0	0	0	0	505	514
13	0	0	0	0	514	513
14	0	0	0	0	519	511
15	0	0	0	0	517	511
0	0	0	0	0	508	509
1	0	0	0	0	497	510
2	0	0	0	0	496	510
3	0	0	0	0	495	511
4	0	0	0	0	490	513
5	0	0	0	0	487	513
6	0	0	0	0	494	511
7	0	0	0	0	510	512
8	0	0	0	0	519	510
9	0	0	0	0	524	511
10	0	0	0	0	526	512
11	0	0	0	0	527	514
12	0	0	0	0	524	512
13	0	0	0	0	520	502
14	0	0	0	0	516	492
15	0	0	0	0	514	481
0	0	0	0	0	513	477
1	0	0	0	0	512	485
2	0	0	0	0	511	511
3	0	0	0	0	515	536
4	0	0	0	0	518	559
5	0	0	0	0	511	571
6	0	0	0	0	503	570
7	0	0	0	0	499	554
8	0	0	0	0	498	524
9	0	0	0	0	495	507
10	0	0	0	0	496	505
11	0	0	0	0	502	507
12	0	0	0	0	500	508
13	0	0	0	0	500	503
14	0	0	0	0	500	485
15	0	0	0	0	504	475
0	0	0	0	0	504	479
1	0	0	0	0	512	495
2	0	0	0	0	514	512
3	0	0	0	0	516	529
4	0	0	0	0	516	534
5	0	0	0	0	517	535
6	0	0	0	0	516	539
7	0	0	0	0	514	531
8	0	0	0	0	514	516
9	0	0	0	0	514	504
10	0	0	0	0	516	503
11	0	0	0	0	516	507
12	0	0	0	0	519	507
13	0	0	0	0	517	504
14	0	0	0	0	520	499
15	0	0	0	0	526	492
0	0	0	0	0	525	497
1	0	0	0	0	524	510
2	0	0	0	0	513	518
3	0	0	0	0	505	525
4	0	0	0	0	496	521
5	0	0	0	0	489	521
6	0	0	0	0	487	526
7	0	0	0	0	494	519
8	0	0	0	0	500	515
9	0	0	0	0	505	512
10	0	0	0	0	505	513
11	0	0	0	0	503	511
12	0	0	0	0	499	505
13	0	0	0	0	497	505
14	0	0	0	0	494	495
15	0	0	0	0	494	497
0	0	0	0	0	506	508
1	0	0	0	0	515	520
2	0	0	0	0	520	525
3	0	0	0	0	524	530
4	0	0	0	0	524	529
5	0	0	0	0	528	527
6	0	0	0	0	536	518
7	0	0	0	0	541	508
8	0	0	0	0	540	505
9	0	0	0	0	529	506
10	0	0	0	0	517	507
11	0	0	0	0	506	510
12	0	0	0	0	493	508
13	0	0	0	0	477	515
14	0	0	0	0	462	517
15	0	0	0	0	461	510
0	0	0	0	0	470	502
1	0	0	0	0	482	494
2	0	0	0	0	497	484
3	0	0	0	0	512	484
4	0	0	0	0	518	477
5	0	0	0	0	523	443
6	0	0	0	0	526	423
7	0	0	0	0	526	460
8	0	0	0	0	527	526
9	0	0	0	0	527	571
10	0	0	0	0	530	590
11	0	0	0	0	539	600
12	0	0	0	0	531	614
13	0	0	0	0	519	617
14	0	0	0	0	509	590
15	0	0	0	0	505	544
0	0	0	0	0	497	516
1	0	0	0	0	493	503
2	0	0	0	0	489	489
3	0	0	0	0	496	455
4	0	0	0	0	501	417
5	0	0	0	0	505	411
6	0	0	0	0	510	445
7	0	0	0	0	512	481
8	0	0	0	0	524	521
9	0	0	0	0	545	551
10	0	0	0	0	558	571
11	0	0	0	0	554	577
12	0	0	0	0	538	566
13	0	0	0	0	516	546
14	0	0	0	0	489	524
15	0	0	0	0	467	503
0	0	0	0	0	461	494
1	0	0	0	0	460	492
2	0	0	0	0	466	494
3	0	0	0	0	478	492
4	0	0	0	0	492	496
5	0	0	0	0	507	497
6	0	0	0	0	512	498
7	0	0	0	0	510	504
8	0	0	0	0	506	505
9	0	0	0	0	503	507
10	0	0	0	0	504	511
11	0	0	0	0	511	509
12	0	0	0	0	524	507
13	0	0	0	0	535	505
14	0	0	0	0	538	505
15	0	0	0	0	537	510
0	0	0	0	0	534	507
1	0	0	0	0	529	505
2	0	0	0	0	529	511
3	0	0	0	0	532	511
4	0	0	0	0	526	507
5	0	0	0	0	516	494
6	0	0	0	0	502	492
7	0	0	0	0	489	508
8	0	0	0	0	481	534
9	0	0	0	0	475	551
10	0	0	0	0	463	558
11	0	0	0	0	473	552
12	0	0	0	0	499	540
13	0	0	0	0	508	528
14	0	0	0	0	527	516
15	0	0	0	0	537	508
0	0	0	0	0	543	500
1	0	0	0	0	537	489
2	0	0	0	0	532	480
3	0	0	0	0	523	479
4	0	0	0	0	511	495
5	0	0	0	0	494	512
6	0	0	0	0	483	519
7	0	0	0	0	482	515
8	0	0	0	0	480	509
9	0	0	0	0	471	499
10	0	0	0	0	472	483
11	0	0	0	0	486	478
12	0	0	0	0	508	496
13	0	0	0	0	526	534
14	0	0	0	0	538	572
15	0	0	0	0	550	588
0	0	0	0	0	551	580
1	0	0	0	0	541	540
2	0	0	0	0	530	487
3	0	0	0	0	517	471
4	0	0	0	0	503	482
5	0	0	0	0	497	499
6	0	0	0	0	496	521
7	0	0	0	0	496	542
8	0	0	0	0	511	544
9	0	0	0	0	522	542
10	0	0	0	0	521	532
11	0	0	0	0	514	519
12	0	0	0	0	499	505
13	0	0	0	0	492	492
14	0	0	0	0	491	491
15	0	0	0	0	481	492
0	0	0	0	0	483	494
1	0	0	0	0	492	500
2	0	0	0	0	504	501
3	0	0	0	0	512	498
4	0	0	0	0	521	496
5	0	0	0	0	526	497
6	0	0	0	0	526	501
7	0	0	0	0	520	502
8	0	0	0	0	511	503
9	0	0	0	0	509	506
10	0	0	0	0	505	510
11	0	0	0	0	506	519
12	0	0	0	0	510	527
13	0	0	0	0	515	526
14	0	0	0	0	520	524
15	0	0	0	0	523	519
0	0	0	0	0	527	509
1	0	0	0	0	527	501
2	0	0	0	0	524	497
3	0	0	0	0	518	501
4	0	0	0	0	510	504
5	0	0	0	0	501	513
6	0	0	0	0	495	521
7	0	0	0	0	496	533
8	0	0	0	0	502	527
9	0	0	0	0	505	513
10	0	0	0	0	511	510
11	0	0	0	0	511	510
12	0	0	0	0	512	512
13	0	0	0	0	512	513
14	0	0	0	0	507	522
15	0	0	0	0	508	529
0	0	0	0	0	504	527
1	0	0	0	0	505	526
2	0	0	0	0	505	524
3	0	0	0	0	504	521
4	0	0	0	0	503	516
5	0	0	0	0	501	504
6	0	0	0	0	498	496
7	0	0	0	0	499	498
8	0	0	0	0	504	500
9	0	0	0	0	506	507
10	0	0	0	0	509	514
11	0	0	0	0	517	516
12	0	0	0	0	538	515
13	0	0	0	0	558	515
14	0	0	0	0	563	511
15	0	0	0	0	552	510
0	0	0	0	0	533	502
1	0	0	0	0	507	500
2	0	0	0	0	475	501
3	0	0	0	0	451	499
4	0	0	0	0	439	495
5	0	0	0	0	442	488
6	0	0	0	0	454	485
7	0	0	0	0	480	497
8	0	0	0	0	504	512
9	0	0	0	0	521	531
10	0	0	0	0	529	551
11	0	0	0	0	531	561
12	0	0	0	0	529	556
13	0	0	0	0	527	536
14	0	0	0	0	524	519
15	0	0	0	0	523	512
0	0	0	0	0	521	504
1	0	0	0	0	520	506
2	0	0	0	0	518	507
3	0	0	0	0	516	495
4	0	0	0	0	514	494
5	0	0	0	0	515	503
6	0	0	0	0	517	500
7	0	0	0	0	519	488
8	0	0	0	0	523	499
9	0	0	0	0	523	522
10	0	0	0	0	520	536
11	0	0	0	0	513	539
12	0	0	0	0	505	535
13	0	0	0	0	498	528
14	0	0	0	0	494	525
15	0	0	0	0	490	499
0	0	0	0	0	488	471
1	0	0	0	0	496	477
2	0	0	0	0	501	492
3	0	0	0	0	506	513
4	0	0	0	0	512	527
5	0	0	0	0	517	520
6	0	0	0	0	517	506
7	0	0	0	0	515	486
8	0	0	0	0	516	475
9	0	0	0	0	516	495
10	0	0	0	0	516	528
11	0	0	0	0	514	563
12	0	0	0	0	517	592
13	0	0	0	0	528	597
14	0	0	0	0	537	584
15	0	0	0	0	539	560
0	0	0	0	0	536	529
1	0	0	0	0	522	507
2	0	0	0	0	505	486
3	0	0	0	0	487	477
4	0	0	0	0	469	475
5	0	0	0	0	457	479
6	0	0	0	0	455	483
7	0	0	0	0	470	488
8	0	0	0	0	490	491
9	0	0	0	0	508	490
10	0	0	0	0	524	480
11	0	0	0	0	525	465
12	0	0	0	0	526	463
13	0	0	0	0	528	473
14	0	0	0	0	527	500
15	0	0	0	0	532	524
0	0	0	0	0	531	550
1	0	0	0	0	524	572
2	0	0	0	0	527	574
3	0	0	0	0	533	558
4	0	0	0	0	532	537
5	0	0	0	0	520	520
6	0	0	0	0	507	508
7	0	0	0	0	496	496
8	0	0	0	0	488	492
9	0	0	0	0	474	485
10	0	0	0	0	459	487
11	0	0	0	0	461	493
12	0	0	0	0	473	499
13	0	0	0	0	484	496
14	0	0	0	0	497	502
15	0	0	0	0	510	515
0	0	0	0	0	518	523
1	0	0	0	0	524	519
2	0	0	0	0	524	520
3	0	0	0	0	523	521
4	0	0	0	0	520	525
5	0	0	0	0	518	530
6	0	0	0	0	519	531
7	0	0	0	0	519	527
8	0	0	0	0	518	519
9	0	0	0	0	519	506
10	0	0	0	0	517	493
11	0	0	0	0	515	483
12	0	0	0	0	515	488
13	0	0	0	0	513	504
14	0	0	0	0	513	519
15	0	0	0	0	510	535
0	0	0	0	0	512	541
1	0	0	0	0	511	536
2	0	0	0	0	515	523
3	0	0	0	0	517	506
4	0	0	0	0	518	475
5	0	0	0	0	515	467
6	0	0	0	0	511	465
7	0	0	0	0	505	471
8	0	0	0	0	502	500
9	0	0	0	0	499	531
10	0	0	0	0	496	551
11	0	0	0	0	499	556
12	0	0	0	0	505	563
13	0	0	0	0	506	560
14	0	0	0	0	513	546
15	0	0	0	0	515	535
0	0	0	0	0	512	523
1	0	0	0	0	511	505
2	0	0	0	0	511	496
3	0	0	0	0	508	486
4	0	0	0	0	504	497
5	0	0	0	0	505	511
6	0	0	0	0	504	519
7	0	0	0	0	508	528
8	0	0	0	0	513	522
9	0	0	0	0	522	518
10	0	0	0	0	524	515
11	0	0	0	0	523	510
12	0	0	0	0	522	501
13	0	0	0	0	523	499
14	0	0	0	0	516	494
15	0	0	0	0	508	494
0	0	0	0	0	497	499
1	0	0	0	0	490	501
2	0	0	0	0	485	503
3	0	0	0	0	486	506
4	0	0	0	0	483	508
5	0	0	0	0	490	508
6	0	0	0	0	497	507
7	0	0	0	0	510	508
8	0	0	0	0	515	512
9	0	0	0	0	521	511
10	0	0	0	0	530	507
11	0	0	0	0	532	508
12	0	0	0	0	529	507
13	0	0	0	0	522	510
14	0	0	0	0	508	507
15	0	0	0	0	497	498
0	0	0	0	0	494	496
1	0	0	0	0	490	504
2	0	0	0	0	486	487
3	0	0	0	0	490	480
4	0	0	0	0	497	504
5	0	0	0	0	506	531
6	0	0	0	0	513	543
7	0	0	0	0	515	546
8	0	0	0	0	518	550
9	0	0	0	0	518	557
10	0	0	0	0	518	565
11	0	0	0	0	520	555
12	0	0	0	0	522	545
13	0	0	0	0	521	536
14	0	0	0	0	519	522
15	0	0	0	0	529	499
0	0	0	0	0	534	488
1	0	0	0	0	531	482
2	0	0	0	0	519	486
3	0	0	0	0	505	495
4	0	0	0	0	492	457
5	0	0	0	0	481	412
6	0	0	0	0	479	419
7	0	0	0	0	480	464
8	0	0	0	0	482	523
9	0	0	0	0	490	571
10	0	0	0	0	505	605
11	0	0	0	0	515	625
12	0	0	0	0	519	632
13	0	0	0	0	518	606
14	0	0	0	0	516	558
15	0	0	0	0	513	513
0	0	0	0	0	516	482
1	0	0	0	0	516	462
2	0	0	0	0	519	463
3	0	0	0	0	520	476
4	0	0	0	0	527	484
5	0	0	0	0	535	487
6	0	0	0	0	530	470
7	0	0	0	0	522	464
8	0	0	0	0	515	476
9	0	0	0	0	504	498
10	0	0	0	0	495	515
11	0	0	0	0	487	515
12	0	0	0	0	488	522
13	0	0	0	0	496	529
14	0	0	0	0	501	531
15	0	0	0	0	504	514
0	0	0	0	0	507	508
1	0	0	0	0	500	513
2	0	0	0	0	504	524
3	0	0	0	0	505	530
4	0	0	0	0	504	531
5	0	0	0	0	509	527
6	0	0	0	0	513	526
7	0	0	0	0	512	525
8	0	0	0	0	518	512
9	0	0	0	0	517	496
10	0	0	0	0	518	488
11	0	0	0	0	515	481
12	0	0	0	0	516	473
13	0	0	0	0	514	477
14	0	0	0	0	513	502
15	0	0	0	0	513	529
0	0	0	0	0	515	539
1	0	0	0	0	513	529
2	0	0	0	0	510	510
3	0	0	0	0	513	495
4	0	0	0	0	510	500
5	0	0	0	0	510	511
6	0	0	0	0	512	523
7	0	0	0	0	522	527
8	0	0	0	0	535	544
9	0	0	0	0	544	549
10	0	0	0	0	540	524
11	0	0	0	0	523	498
12	0	0	0	0	503	494
13	0	0	0	0	481	512
14	0	0	0	0	459	527
15	0	0	0	0	449	536
0	0	0	0	0	457	540
1	0	0	0	0	470	533
2	0	0	0	0	481	520
3	0	0	0	0	499	506
4	0	0	0	0	507	496
5	0	0	0	0	512	486
6	0	0	0	0	511	487
7	0	0	0	0	506	494
8	0	0	0	0	508	502
9	0	0	0	0	510	510
10	0	0	0	0	515	514
11	0	0	0	0	519	515
12	0	0	0	0	519	518
13	0	0	0	0	519	508
14	0	0	0	0	519	496
15	0	0	0	0	525	486
0	0	0	0	0	526	494
1	0	0	0	0	527	511
2	0	0	0	0	521	522
3	0	0	0	0	519	529
4	0	0	0	0	516	535
5	0	0	0	0	516	536
6	0	0	0	0	514	531
7	0	0	0	0	513	518
8	0	0	0	0	520	510
9	0	0	0	0	529	503
10	0	0	0	0	534	502
11	0	0	0	0	541	491
12	0	0	0	0	537	494
13	0	0	0	0	524	495
14	0	0	0	0	512	500
15	0	0	0	0	504	501
0	0	0	0	0	489	515
1	0	0	0	0	475	532
2	0	0	0	0	472	537
3	0	0	0	0	471	534
4	0	0	0	0	476	536
5	0	0	0	0	477	538
6	0	0	0	0	487	527
7	0	0	0	0	501	512
8	0	0	0	0	513	506
9	0	0	0	0	521	495
10	0	0	0	0	523	472
11	0	0	0	0	527	455
12	0	0	0	0	535	453
13	0	0	0	0	535	486
14	0	0	0	0	534	519
15	0	0	0	0	527	548
0	0	0	0	0	513	561
1	0	0	0	0	500	568
2	0	0	0	0	493	563
3	0	0	0	0	481	552
4	0	0	0	0	477	526
5	0	0	0	0	483	508
6	0	0	0	0	494	500
7	0	0	0	0	505	497
8	0	0	0	0	517	494
9	0	0	0	0	525	493
10	0	0	0	0	532	492
11	0	0	0	0	543	497
12	0	0	0	0	542	498
13	0	0	0	0	538	501
14	0	0	0	0	534	507
15	0	0	0	0	521	513
0	0	0	0	0	508	514
1	0	0	0	0	500	513
2	0	0	0	0	504	504
3	0	0	0	0	508	476
4	0	0	0	0	512	460
5	0	0	0	0	520	472
6	0	0	0	0	518	502
7	0	0	0	0	514	535
8	0	0	0	0	506	555
9	0	0	0	0	509	567
10	0	0	0	0	500	580
11	0	0	0	0	485	585
12	0	0	0	0	480	568
13	0	0	0	0	479	527
14	0	0	0	0	484	492
15	0	0	0	0	486	475
0	0	0	0	0	492	475
1	0	0	0	0	496	487
2	0	0	0	0	503	487
3	0	0	0	0	527	481
4	0	0	0	0	563	486
5	0	0	0	0	565	497
6	0	0	0	0	547	499
7	0	0	0	0	524	509
8	0	0	0	0	498	526
9	0	0	0	0	463	547
10	0	0	0	0	438	547
11	0	0	0	0	436	540
12	0	0	0	0	457	528
13	0	0	0	0	497	516
14	0	0	0	0	533	504
15	0	0	0	0	564	485
0	0	0	0	0	602	483
1	0	0	0	0	607	484
2	0	0	0	0	624	499
3	0	0	0	0	669	519
4	0	0	0	0	656	532
5	0	0	0	0	585	545
6	0	0	0	0	496	549
7	0	0	0	0	403	543
8	0	0	0	0	323	527
9	0	0	0	0	277	507
10	0	0	0	0	265	494
11	0	0	0	0	286	488
12	0	0	0	0	346	495
13	0	0	0	0	424	496
14	0	0	0	0	514	483
15	0	0	0	0	582	485
0	0	0	0	0	601	493
1	0	0	0	0	602	505
2	0	0	0	0	598	519
3	0	0	0	0	584	533
4	0	0	0	0	568	537
5	0	0	0	0	552	541
6	0	0	0	0	543	535
7	0	0	0	0	532	523
8	0	0	0	0	527	515
9	0	0	0	0	528	508
10	0	0	0	0	524	504
11	0	0	0	0	519	504
12	0	0	0	0	519	505
13	0	0	0	0	524	504
14	0	0	0	0	527	504
15	0	0	0	0	524	503
0	0	0	0	0	524	503
1	0	0	0	0	526	505
2	0	0	0	0	531	507
3	0	0	0	0	529	510
4	0	0	0	0	542	513
5	0	0	0	0	544	518
6	0	0	0	0	540	519
7	0	0	0	0	539	518
8	0	0	0	0	531	514
9	0	0	0	0	505	514
10	0	0	0	0	473	510
11	0	0	0	0	449	503
12	0	0	0	0	435	504
13	0	0	0	0	436	502
14	0	0	0	0	452	511
15	0	0	0	0	465	519
0	0	0	0	0	480	520
1	0	0	0	0	499	511
2	0	0	0	0	515	498
3	0	0	0	0	525	510
4	0	0	0	0	523	521
5	0	0	0	0	515	527
6	0	0	0	0	515	533
7	0	0	0	0	528	536
8	0	0	0	0	545	537
9	0	0	0	0	558	527
10	0	0	0	0	554	518
11	0	0	0	0	531	508
12	0	0	0	0	511	502
13	0	0	0	0	501	499
14	0	0	0	0	502	496
15	0	0	0	0	514	496
0	0	0	0	0	526	504
1	0	0	0	0	520	514
2	0	0	0	0	508	513
3	0	0	0	0	506	504
4	0	0	0	0	512	500
5	0	0	0	0	509	509
6	0	0	0	0	491	517
7	0	0	0	0	467	512
8	0	0	0	0	465	512
9	0	0	0	0	472	514
10	0	0	0	0	482	515
11	0	0	0	0	485	518
12	0	0	0	0	481	522
13	0	0	0	0	489	522
14	0	0	0	0	492	523
15	0	0	0	0	488	516
0	0	0	0	0	493	507
1	0	0	0	0	529	500
2	0	0	0	0	562	502
3	0	0	0	0	569	510
4	0	0	0	0	551	516
5	0	0	0	0	523	520
6	0	0	0	0	497	525
7	0	0	0	0	468	523
8	0	0	0	0	440	503
9	0	0	0	0	423	490
10	0	0	0	0	422	492
11	0	0	0	0	439	488
12	0	0	0	0	483	485
13	0	0	0	0	518	504
14	0	0	0	0	543	527
15	0	0	0	0	551	539
0	0	0	0	0	549	542
1	0	0	0	0	550	545
2	0	0	0	0	545	538
3	0	0	0	0	543	530
4	0	0	0	0	538	513
5	0	0	0	0	537	508
6	0	0	0	0	539	514
7	0	0	0	0	536	516
8	0	0	0	0	532	518
9	0	0	0	0	532	515
10	0	0	0	0	530	512
11	0	0	0	0	528	502
12	0	0	0	0	524	493
13	0	0	0	0	511	495
14	0	0	0	0	502	500
15	0	0	0	0	500	507
0	0	0	0	0	497	511
1	0	0	0	0	495	513
2	0	0	0	0	490	513
3	0	0	0	0	484	514
4	0	0	0	0	488	513
5	0	0	0	0	499	511
6	0	0	0	0	505	508
7	0	0	0	0	512	509
8	0	0	0	0	513	511
9	0	0	0	0	512	512
10	0	0	0	0	515	513
11	0	0	0	0	525	517
12	0	0	0	0	539	518
13	0	0	0	0	549	511
14	0	0	0	0	555	491
15	0	0	0	0	552	481
0	0	0	0	0	546	494
1	0	0	0	0	541	515
2	0	0	0	0	518	531
3	0	0	0	0	483	540
4	0	0	0	0	447	540
5	0	0	0	0	432	535
6	0	0	0	0	423	525
7	0	0	0	0	441	517
8	0	0	0	0	465	511
9	0	0	0	0	476	501
10	0	0	0	0	486	496
11	0	0	0	0	509	499
12	0	0	0	0	536	502
13	0	0	0	0	543	508
14	0	0	0	0	544	514
15	0	0	0	0	547	518
0	0	0	0	0	551	519
1	0	0	0	0	551	519
2	0	0	0	0	544	522
3	0	0	0	0	538	512
4	0	0	0	0	534	504
5	0	0	0	0	529	505
6	0	0	0	0	540	499
7	0	0	0	0	553	497
8	0	0	0	0	550	504
9	0	0	0	0	537	513
10	0	0	0	0	505	519
11	0	0	0	0	479	526
12	0	0	0	0	457	519
13	0	0	0	0	438	511
14	0	0	0	0	420	506
15	0	0	0	0	416	508
0	0	0	0	0	437	519
1	0	0	0	0	478	527
2	0	0	0	0	513	531
3	0	0	0	0	530	531
4	0	0	0	0	532	524
5	0	0	0	0	536	504
6	0	0	0	0	535	489
7	0	0	0	0	534	480
8	0	0	0	0	530	494
9	0	0	0	0	527	505
10	0	0	0	0	524	520
11	0	0	0	0	524	532
12	0	0	0	0	523	538
13	0	0	0	0	521	539
14	0	0	0	0	521	534
15	0	0	0	0	520	527
0	0	0	0	0	519	519
1	0	0	0	0	519	509
2	0	0	0	0	519	496
3	0	0	0	0	516	489
4	0	0	0	0	511	494
5	0	0	0	0	511	505
6	0	0	0	0	510	518
7	0	0	0	0	506	523
8	0	0	0	0	505	525
9	0	0	0	0	503	527
10	0	0	0	0	504	513
11	0	0	0	0	507	506
12	0	0	0	0	513	499
13	0	0	0	0	515	496
14	0	0	0	0	512	499
15	0	0	0	0	511	505
0	0	0	0	0	508	503
1	0	0	0	0	503	507
2	0	0	0	0	499	511
3	0	0	0	0	500	510
4	0	0	0	0	498	512
5	0	0	0	0	504	515
6	0	0	0	0	508	510
7	0	0	0	0	511	505
8	0	0	0	0	510	497
9	0	0	0	0	508	493
10	0	0	0	0	510	504
11	0	0	0	0	514	506
12	0	0	0	0	512	489
13	0	0	0	0	512	492
14	0	0	0	0	511	519
15	0	0	0	0	510	540
0	0	0	0	0	512	536
1	0	0	0	0	513	533
2	0	0	0	0	510	545
3	0	0	0	0	510	546
4	0	0	0	0	514	532
5	0	0	0	0	518	511
6	0	0	0	0	518	504
7	0	0	0	0	518	504
8	0	0	0	0	513	508
9	0	0	0	0	510	512
10	0	0	0	0	510	514
11	0	0	0	0	514	502
12	0	0	0	0	509	488
13	0	0	0	0	508	496
14	0	0	0	0	512	509
15	0	0	0	0	515	515
0	0	0	0	0	512	521
1	0	0	0	0	503	524
2	0	0	0	0	496	523
3	0	0	0	0	489	510
4	0	0	0	0	487	499
5	0	0	0	0	491	507
6	0	0	0	0	502	520
7	0	0	0	0	510	525
8	0	0	0	0	523	519
9	0	0	0	0	531	519
10	0	0	0	0	528	522
11	0	0	0	0	528	521
12	0	0	0	0	520	515
13	0	0	0	0	511	510
14	0	0	0	0	500	502
15	0	0	0	0	494	504
0	0	0	0	0	493	512
1	0	0	0	0	493	509
2	0	0	0	0	492	508
3	0	0	0	0	506	509
4	0	0	0	0	527	513
5	0	0	0	0	538	523
6	0	0	0	0	551	522
7	0	0	0	0	565	518
8	0	0	0	0	568	509
9	0	0	0	0	551	507
10	0	0	0	0	521	508
11	0	0	0	0	489	507
12	0	0	0	0	450	508
13	0	0	0	0	425	495
14	0	0	0	0	412	487
15	0	0	0	0	412	493
0	0	0	0	0	433	500
1	0	0	0	0	472	504
2	0	0	0	0	505	512
3	0	0	0	0	524	525
4	0	0	0	0	536	538
5	0	0	0	0	541	542
6	0	0	0	0	538	533
7	0	0	0	0	533	527
8	0	0	0	0	536	524
9	0	0	0	0	548	520
10	0	0	0	0	551	509
11	0	0	0	0	542	507
12	0	0	0	0	539	509
13	0	0	0	0	526	516
14	0	0	0	0	515	515
15	0	0	0	0	511	510
0	0	0	0	0	506	504
1	0	0	0	0	497	507
2	0	0	0	0	490	505
3	0	0	0	0	489	501
4	0	0	0	0	491	495
5	0	0	0	0	489	497
6	0	0	0	0	487	496
7	0	0	0	0	487	493
8	0	0	0	0	485	502
9	0	0	0	0	490	513
10	0	0	0	0	498	518
11	0	0	0	0	514	519
12	0	0	0	0	522	526
13	0	0	0	0	523	529
14	0	0	0	0	523	530
15	0	0	0	0	523	529
0	0	0	0	0	519	515
1	0	0	0	0	515	495
2	0	0	0	0	515	495
3	0	0	0	0	514	510
4	0	0	0	0	508	523
5	0	0	0	0	498	528
6	0	0	0	0	494	536
7	0	0	0	0	489	541
8	0	0	0	0	489	532
9	0	0	0	0	491	521
10	0	0	0	0	496	511
11	0	0	0	0	499	502
12	0	0	0	0	504	497
13	0	0	0	0	512	499
14	0	0	0	0	519	503
15	0	0	0	0	520	495
0	0	0	0	0	520	481
1	0	0	0	0	516	487
2	0	0	0	0	513	504
3	0	0	0	0	508	517
4	0	0	0	0	502	525
5	0	0	0	0	504	519
6	0	0	0	0	503	524
7	0	0	0	0	507	533
8	0	0	0	0	512	532
9	0	0	0	0	520	527
10	0	0	0	0	528	521
11	0	0	0	0	531	519
12	0	0	0	0	527	520
13	0	0	0	0	516	515
14	0	0	0	0	506	513
15	0	0	0	0	504	515
0	0	0	0	0	500	515
1	0	0	0	0	502	510
2	0	0	0	0	502	508
3	0	0	0	0	507	507
4	0	0	0	0	511	505
5	0	0	0	0	512	501
6	0	0	0	0	508	499
7	0	0	0	0	502	502
8	0	0	0	0	498	502
9	0	0	0	0	491	507
10	0	0	0	0	498	505
11	0	0	0	0	508	500
12	0	0	0	0	519	509
13	0	0	0	0	523	515
14	0	0	0	0	530	519
15	0	0	0	0	540	520
0	0	0	0	0	549	521
1	0	0	0	0	554	518
2	0	0	0	0	551	514
3	0	0	0	0	542	511
4	0	0	0	0	522	484
5	0	0	0	0	497	464
6	0	0	0	0	471	475
7	0	0	0	0	451	501
8	0	0	0	0	444	522
9	0	0	0	0	445	543
10	0	0	0	0	443	559
11	0	0	0	0	464	575
12	0	0	0	0	486	567
13	0	0	0	0	503	539
14	0	0	0	0	513	515
15	0	0	0	0	519	503
0	0	0	0	0	523	497
1	0	0	0	0	524	496
2	0	0	0	0	524	497
3	0	0	0	0	521	498
4	0	0	0	0	522	500
5	0	0	0	0	525	500
6	0	0	0	0	528	505
7	0	0	0	0	534	507
8	0	0	0	0	536	508
9	0	0	0	0	531	502
10	0	0	0	0	526	504
11	0	0	0	0	513	508
12	0	0	0	0	499	512
13	0	0	0	0	470	515
14	0	0	0	0	443	513
15	0	0	0	0	443	511
0	0	0	0	0	456	501
1	0	0	0	0	468	504
2	0	0	0	0	492	504
3	0	0	0	0	508	508
4	0	0	0	0	519	517
5	0	0	0	0	529	525
6	0	0	0	0	536	524
7	0	0	0	0	534	518
8	0	0	0	0	537	516
9	0	0	0	0	534	519
10	0	0	0	0	530	525
11	0	0	0	0	531	529
12	0	0	0	0	529	532
13	0	0	0	0	527	527
14	0	0	0	0	530	526
15	0	0	0	0	526	518
0	0	0	0	0	523	512
1	0	0	0	0	521	502
2	0	0	0	0	519	498
3	0	0	0	0	516	500
4	0	0	0	0	516	501
5	0	0	0	0	516	503
6	0	0	0	0	515	508
7	0	0	0	0	519	508
8	0	0	0	0	515	513
9	0	0	0	0	520	514
10	0	0	0	0	519	513
11	0	0	0	0	516	511
12	0	0	0	0	515	512
13	0	0	0	0	515	510
14	0	0	0	0	513	508
15	0	0	0	0	510	508
0	0	0	0	0	508	512
1	0	0	0	0	509	502
2	0	0	0	0	510	483
3	0	0	0	0	512	479
4	0	0	0	0	513	487
5	0	0	0	0	514	482
6	0	0	0	0	511	494
7	0	0	0	0	510	524
8	0	0	0	0	509	555
9	0	0	0	0	503	574
10	0	0	0	0	499	571
11	0	0	0	0	502	561
12	0	0	0	0	503	544
13	0	0	0	0	510	529
14	0	0	0	0	515	520
15	0	0	0	0	512	511
0	0	0	0	0	508	486
1	0	0	0	0	505	466
2	0	0	0	0	505	438
3	0	0	0	0	506	451
4	0	0	0	0	513	488
5	0	0	0	0	514	516
6	0	0	0	0	514	540
7	0	0	0	0	518	545
8	0	0	0	0	521	538
9	0	0	0	0	525	536
10	0	0	0	0	522	534
11	0	0	0	0	515	532
12	0	0	0	0	506	534
13	0	0	0	0	499	535
14	0	0	0	0	493	530
15	0	0	0	0	492	520
0	0	0	0	0	494	513
1	0	0	0	0	487	503
2	0	0	0	0	490	490
3	0	0	0	0	499	489
4	0	0	0	0	500	495
5	0	0	0	0	502	497
6	0	0	0	0	504	503
7	0	0	0	0	508	503
8	0	0	0	0	510	502
9	0	0	0	0	515	504
10	0	0	0	0	521	509
11	0	0	0	0	524	512
12	0	0	0	0	525	514
13	0	0	0	0	524	515
14	0	0	0	0	521	515
15	0	0	0	0	519	514
0	0	0	0	0	516	511
1	0	0	0	0	513	504
2	0	0	0	0	508	503
3	0	0	0	0	504	506
4	0	0	0	0	503	509
5	0	0	0	0	502	511
6	0	0	0	0	505	512
7	0	0	0	0	504	513
8	0	0	0	0	507	517
9	0	0	0	0	508	522
10	0	0	0	0	513	522
11	0	0	0	0	515	525
12	0	0	0	0	519	523
13	0	0	0	0	520	523
14	0	0	0	0	519	517
15	0	0	0	0	520	510
0	0	0	0	0	517	505
1	0	0	0	0	509	499
2	0	0	0	0	504	492
3	0	0	0	0	501	492
4	0	0	0	0	502	494
5	0	0	0	0	498	501
6	0	0	0	0	501	514
7	0	0	0	0	507	523
8	0	0	0	0	514	534
9	0	0	0	0	513	537
10	0	0	0	0	516	534
11	0	0	0	0	513	525
12	0	0	0	0	512	525
13	0	0	0	0	516	511
14	0	0	0	0	524	502
15	0	0	0	0	523	503
0	0	0	0	0	518	508
1	0	0	0	0	512	514
2	0	0	0	0	506	515
3	0	0	0	0	494	513
4	0	0	0	0	482	517
5	0	0	0	0	478	511
6	0	0	0	0	480	500
7	0	0	0	0	487	492
8	0	0	0	0	501	479
9	0	0	0	0	509	470
10	0	0	0	0	521	488
11	0	0	0	0	527	513
12	0	0	0	0	527	526
13	0	0	0	0	523	526
14	0	0	0	0	519	535
15	0	0	0	0	513	547
0	0	0	0	0	506	551
1	0	0	0	0	508	548
2	0	0	0	0	515	539
3	0	0	0	0	520	534
4	0	0	0	0	524	524
5	0	0	0	0	523	509
6	0	0	0	0	520	498
7	0	0	0	0	512	493
8	0	0	0	0	509	495
9	0	0	0	0	508	499
10	0	0	0	0	504	503
11	0	0	0	0	503	503
12	0	0	0	0	505	504
13	0	0	0	0	508	507
14	0	0	0	0	504	502
15	0	0	0	0	499	495
0	0	0	0	0	496	491
1	0	0	0	0	500	496
2	0	0	0	0	505	511
3	0	0	0	0	506	526
4	0	0	0	0	507	531
5	0	0	0	0	507	531
6	0	0	0	0	500	529
7	0	0	0	0	499	522
8	0	0	0	0	500	508
9	0	0	0	0	504	494
10	0	0	0	0	509	494
11	0	0	0	0	512	498
12	0	0	0	0	514	505
13	0	0	0	0	519	519
14	0	0	0	0	519	527
15	0	0	0	0	517	518
0	0	0	0	0	519	510
1	0	0	0	0	527	504
2	0	0	0	0	527	505
3	0	0	0	0	523	519
4	0	0	0	0	517	530
5	0	0	0	0	513	541
6	0	0	0	0	512	543
7	0	0	0	0	507	531
8	0	0	0	0	499	513
9	0	0	0	0	494	488
10	0	0	0	0	501	482
11	0	0	0	0	503	481
12	0	0	0	0	501	484
13	0	0	0	0	497	497
14	0	0	0	0	500	504
15	0	0	0	0	503	519
0	0	0	0	0	508	536
1	0	0	0	0	512	546
2	0	0	0	0	522	548
3	0	0	0	0	529	548
4	0	0	0	0	527	536
5	0	0	0	0	518	521
6	0	0	0	0	514	519
7	0	0	0	0	508	514
8	0	0	0	0	502	505
9	0	0	0	0	500	499
10	0	0	0	0	499	504
11	0	0	0	0	504	505
12	0	0	0	0	514	502
13	0	0	0	0	526	491
14	0	0	0	0	527	488
15	0	0	0	0	521	495
0	0	0	0	0	518	502
1	0	0	0	0	506	511
2	0	0	0	0	501	512
3	0	0	0	0	494	519
4	0	0	0	0	491	520
5	0	0	0	0	489	519
6	0	0	0	0	492	519
7	0	0	0	0	497	516
8	0	0	0	0	502	512
9	0	0	0	0	511	510
10	0	0	0	0	515	510
11	0	0	0	0	515	497
12	0	0	0	0	519	486
13	0	0	0	0	519	491
14	0	0	0	0	516	505
15	0	0	0	0	516	515
0	0	0	0	0	515	519
1	0	0	0	0	514	527
2	0	0	0	0	514	536
3	0	0	0	0	513	537
4	0	0	0	0	516	528
5	0	0	0	0	515	519
6	0	0	0	0	516	511
7	0	0	0	0	516	512
8	0	0	0	0	519	512
9	0	0	0	0	518	511
10	0	0	0	0	511	509
11	0	0	0	0	509	505
12	0	0	0	0	508	504
13	0	0	0	0	509	502
14	0	0	0	0	512	503
15	0	0	0	0	510	503
0	0	0	0	0	501	504
1	0	0	0	0	493	505
2	0	0	0	0	489	496
3	0	0	0	0	489	498
4	0	0	0	0	489	512
5	0	0	0	0	494	524
6	0	0	0	0	496	528
7	0	0	0	0	504	531
8	0	0	0	0	512	533
9	0	0	0	0	515	531
10	0	0	0	0	519	524
11	0	0	0	0	519	511
12	0	0	0	0	514	509
13	0	0	0	0	512	508
14	0	0	0	0	513	510
15	0	0	0	0	519	508
0	0	0	0	0	524	506
1	0	0	0	0	532	506
2	0	0	0	0	542	504
3	0	0	0	0	539	505
4	0	0	0	0	535	508
5	0	0	0	0	524	511
6	0	0	0	0	500	510
7	0	0	0	0	483	514
8	0	0	0	0	468	509
9	0	0	0	0	460	498
10	0	0	0	0	467	492
11	0	0	0	0	482	483
12	0	0	0	0	492	474
13	0	0	0	0	504	490
14	0	0	0	0	511	523
15	0	0	0	0	513	553
0	0	0	0	0	512	554
1	0	0	0	0	514	561
2	0	0	0	0	519	567
3	0	0	0	0	520	564
4	0	0	0	0	524	541
5	0	0	0	0	523	515
6	0	0	0	0	522	503
7	0	0	0	0	520	495
8	0	0	0	0	520	490
9	0	0	0	0	520	494
10	0	0	0	0	519	498
11	0	0	0	0	516	500
12	0	0	0	0	515	498
13	0	0	0	0	513	495
14	0	0	0	0	512	491
15	0	0	0	0	511	499
0	0	0	0	0	508	507
1	0	0	0	0	510	514
2	0	0	0	0	513	520
3	0	0	0	0	516	516
4	0	0	0	0	518	518
5	0	0	0	0	520	519
6	0	0	0	0	519	521
7	0	0	0	0	517	518
8	0	0	0	0	514	516
9	0	0	0	0	509	518
10	0	0	0	0	500	514
11	0	0	0	0	495	518
12	0	0	0	0	496	516
13	0	0	0	0	496	505
14	0	0	0	0	496	502
15	0	0	0	0	494	504
0	0	0	0	0	496	512
1	0	0	0	0	503	516
2	0	0	0	0	504	513
3	0	0	0	0	504	508
4	0	0	0	0	509	513
5	0	0	0	0	514	512
6	0	0	0	0	516	510
7	0	0	0	0	515	508
8	0	0	0	0	513	512
9	0	0	0	0	511	512
10	0	0	0	0	511	509
11	0	0	0	0	510	509
12	0	0	0	0	510	508
13	0	0	0	0	510	510
14	0	0	0	0	510	513
15	0	0	0	0	512	515
0	0	0	0	0	514	515
1	0	0	0	0	513	515
2	0	0	0	0	512	511
3	0	0	0	0	511	511
4	0	0	0	0	514	511
5	0	0	0	0	520	508
6	0	0	0	0	523	503
7	0	0	0	0	527	499
8	0	0	0	0	524	502
9	0	0	0	0	527	512
10	0	0	0	0	522	518
11	0	0	0	0	513	524
12	0	0	0	0	503	528
13	0	0	0	0	492	534
14	0	0	0	0	483	527
15	0	0	0	0	482	516
0	0	0	0	0	485	515
1	0	0	0	0	486	512
2	0	0	0	0	492	514
3	0	0	0	0	504	513
4	0	0	0	0	513	508
5	0	0	0	0	513	496
6	0	0	0	0	516	480
7	0	0	0	0	518	478
8	0	0	0	0	521	492
9	0	0	0	0	519	511
10	0	0	0	0	515	527
11	0	0	0	0	512	540
12	0	0	0	0	510	550
13	0	0	0	0	512	539
14	0	0	0	0	519	519
15	0	0	0	0	516	496
0	0	0	0	0	519	452
1	0	0	0	0	533	451
2	0	0	0	0	534	489
3	0	0	0	0	525	536
4	0	0	0	0	510	560
5	0	0	0	0	489	572
6	0	0	0	0	472	572
7	0	0	0	0	461	548
8	0	0	0	0	454	502
9	0	0	0	0	460	487
10	0	0	0	0	475	500
11	0	0	0	0	494	516
12	0	0	0	0	511	527
13	0	0	0	0	525	527
14	0	0	0	0	529	527
15	0	0	0	0	527	528
0	0	0	0	0	527	518
1	0	0	0	0	525	504
2	0	0	0	0	525	497
3	0	0	0	0	524	494
4	0	0	0	0	522	495
5	0	0	0	0	518	495
6	0	0	0	0	516	496
7	0	0	0	0	516	499
8	0	0	0	0	516	501
9	0	0	0	0	518	503
10	0	0	0	0	518	503
11	0	0	0	0	515	501
12	0	0	0	0	517	504
13	0	0	0	0	519	509
14	0	0	0	0	519	512
15	0	0	0	0	512	510
0	0	0	0	0	507	509
1	0	0	0	0	500	507
2	0	0	0	0	499	491
3	0	0	0	0	496	486
4	0	0	0	0	496	499
5	0	0	0	0	499	514
6	0	0	0	0	503	535
7	0	0	0	0	508	549
8	0	0	0	0	518	556
9	0	0	0	0	524	551
10	0	0	0	0	524	538
11	0	0	0	0	514	521
12	0	0	0	0	506	509
13	0	0	0	0	503	503
14	0	0	0	0	503	502
15	0	0	0	0	497	499
0	0	0	0	0	495	502
1	0	0	0	0	491	503
2	0	0	0	0	495	507
3	0	0	0	0	508	506
4	0	0	0	0	516	507
5	0	0	0	0	520	505
6	0	0	0	0	522	504
7	0	0	0	0	519	505
8	0	0	0	0	510	508
9	0	0	0	0	502	505
10	0	0	0	0	498	505
11	0	0	0	0	499	513
12	0	0	0	0	501	519
13	0	0	0	0	508	519
14	0	0	0	0	514	515
15	0	0	0	0	516	513
0	0	0	0	0	515	520
1	0	0	0	0	517	527
2	0	0	0	0	514	522
3	0	0	0	0	509	515
4	0	0	0	0	508	515
5	0	0	0	0	508	498
6	0	0	0	0	512	491
7	0	0	0	0	523	500
8	0	0	0	0	531	514
9	0	0	0	0	531	528
10	0	0	0	0	533	543
11	0	0	0	0	522	549
12	0	0	0	0	506	537
13	0	0	0	0	496	519
14	0	0	0	0	484	504
15	0	0	0	0	480	506
0	0	0	0	0	486	502
1	0	0	0	0	488	503
2	0	0	0	0	496	500
3	0	0	0	0	505	482
4	0	0	0	0	514	471
5	0	0	0	0	524	486
6	0	0	0	0	526	500
7	0	0	0	0	523	516
8	0	0	0	0	519	528
9	0	0	0	0	515	535
10	0	0	0	0	510	540
11	0	0	0	0	505	534
12	0	0	0	0	499	524
13	0	0	0	0	503	519
14	0	0	0	0	508	516
15	0	0	0	0	512	513
0	0	0	0	0	516	513
1	0	0	0	0	522	516
2	0	0	0	0	528	514
3	0	0	0	0	527	512
4	0	0	0	0	521	508
5	0	0	0	0	513	507
6	0	0	0	0	509	504
7	0	0	0	0	504	502
8	0	0	0	0	497	504
9	0	0	0	0	493	507
10	0	0	0	0	494	503
11	0	0	0	0	491	490
12	0	0	0	0	496	489
13	0	0	0	0	499	494
14	0	0	0	0	504	499
15	0	0	0	0	506	511
0	0	0	0	0	511	523
1	0	0	0	0	515	529
2	0	0	0	0	515	526
3	0	0	0	0	517	523
4	0	0	0	0	519	519
5	0	0	0	0	519	527
6	0	0	0	0	516	532
7	0	0	0	0	515	532
8	0	0	0	0	516	534
9	0	0	0	0	514	532
10	0	0	0	0	512	523
11	0	0	0	0	513	519
12	0	0	0	0	508	513
13	0	0	0	0	514	505
14	0	0	0	0	529	504
15	0	0	0	0	535	503
0	0	0	0	0	530	503
1	0	0	0	0	519	497
2	0	0	0	0	507	488
3	0	0	0	0	495	489
4	0	0	0	0	484	494
5	0	0	0	0	478	510
6	0	0	0	0	478	519
7	0	0	0	0	486	528
8	0	0	0	0	494	529
9	0	0	0	0	504	530
10	0	0	0	0	511	527
11	0	0	0	0	512	510
12	0	0	0	0	513	491
13	0	0	0	0	513	487
14	0	0	0	0	518	497
15	0	0	0	0	523	511
0	0	0	0	0	523	523
1	0	0	0	0	526	523
2	0	0	0	0	534	520
3	0	0	0	0	529	517
4	0	0	0	0	531	496
5	0	0	0	0	526	485
6	0	0	0	0	517	489
7	0	0	0	0	507	496
8	0	0	0	0	496	512
9	0	0	0	0	484	526
10	0	0	0	0	482	535
11	0	0	0	0	480	527
12	0	0	0	0	482	506
13	0	0	0	0	490	497
14	0	0	0	0	499	499
15	0	0	0	0	512	508
0	0	0	0	0	522	519
1	0	0	0	0	522	527
2	0	0	0	0	518	534
3	0	0	0	0	510	540
4	0	0	0	0	504	510
5	0	0	0	0	499	474
6	0	0	0	0	492	464
7	0	0	0	0	490	486
8	0	0	0	0	500	512
9	0	0	0	0	511	530
10	0	0	0	0	519	545
11	0	0	0	0	524	559
12	0	0	0	0	531	561
13	0	0	0	0	529	560
14	0	0	0	0	527	551
15	0	0	0	0	525	525
0	0	0	0	0	524	504
1	0	0	0	0	524	493
2	0	0	0	0	524	494
3	0	0	0	0	521	493
4	0	0	0	0	520	496
5	0	0	0	0	511	496
6	0	0	0	0	504	499
7	0	0	0	0	499	502
8	0	0	0	0	499	500
9	0	0	0	0	493	498
10	0	0	0	0	487	504
11	0	0	0	0	489	506
12	0	0	0	0	497	507
13	0	0	0	0	507	497
14	0	0	0	0	510	493
15	0	0	0	0	515	500
0	0	0	0	0	515	505
1	0	0	0	0	515	503
2	0	0	0	0	515	514
3	0	0	0	0	517	528
4	0	0	0	0	512	539
5	0	0	0	0	508	540
6	0	0	0	0	508	542
7	0	0	0	0	506	533
8	0	0	0	0	507	524
9	0	0	0	0	503	519
10	0	0	0	0	502	516
11	0	0	0	0	503	509
12	0	0	0	0	508	500
13	0	0	0	0	510	499
14	0	0	0	0	510	502
15	0	0	0	0	510	500
0	0	0	0	0	516	495
1	0	0	0	0	516	501
2	0	0	0	0	518	506
3	0	0	0	0	518	518
4	0	0	0	0	526	521
5	0	0	0	0	534	518
6	0	0	0	0	529	518
7	0	0	0	0	523	519
8	0	0	0	0	515	512
9	0	0	0	0	506	510
10	0	0	0	0	493	508
11	0	0	0	0	482	504
12	0	0	0	0	478	509
13	0	0	0	0	479	517
14	0	0	0	0	481	525
15	0	0	0	0	485	529
0	0	0	0	0	496	524
1	0	0	0	0	502	517
2	0	0	0	0	508	512
3	0	0	0	0	512	510
4	0	0	0	0	515	508
5	0	0	0	0	520	507
6	0	0	0	0	526	505
7	0	0	0	0	526	503
8	0	0	0	0	527	499
9	0	0	0	0	532	500
10	0	0	0	0	532	505
11	0	0	0	0	536	511
12	0	0	0	0	527	518
13	0	0	0	0	518	520
14	0	0	0	0	508	517
15	0	0	0	0	497	513
0	0	0	0	0	485	505
1	0	0	0	0	476	489
2	0	0	0	0	479	488
3	0	0	0	0	481	497
4	0	0	0	0	489	507
5	0	0	0	0	495	519
6	0	0	0	0	500	531
7	0	0	0	0	511	545
8	0	0	0	0	518	549
9	0	0	0	0	521	536
10	0	0	0	0	524	529
11	0	0	0	0	524	514
12	0	0	0	0	524	500
13	0	0	0	0	521	490
14	0	0	0	0	522	475
15	0	0	0	0	520	483
0	0	0	0	0	519	491
1	0	0	0	0	519	504
2	0	0	0	0	516	534
3	0	0	0	0	517	553
4	0	0	0	0	512	556
5	0	0	0	0	507	545
6	0	0	0	0	504	537
7	0	0	0	0	504	524
8	0	0	0	0	503	510
9	0	0	0	0	505	508
10	0	0	0	0	506	507
11	0	0	0	0	509	504
12	0	0	0	0	514	502
13	0	0	0	0	517	496
14	0	0	0	0	519	492
15	0	0	0	0	523	493
0	0	0	0	0	522	489
1	0	0	0	0	516	488
2	0	0	0	0	510	495
3	0	0	0	0	499	509
4	0	0	0	0	491	521
5	0	0	0	0	487	527
6	0	0	0	0	485	529
7	0	0	0	0	484	532
8	0	0	0	0	489	529
9	0	0	0	0	503	517
10	0	0	0	0	515	511
11	0	0	0	0	521	510
12	0	0	0	0	524	509
13	0	0	0	0	519	508
14	0	0	0	0	521	503
15	0	0	0	0	521	502
0	0	0	0	0	522	503
1	0	0	0	0	526	497
2	0	0	0	0	530	503
3	0	0	0	0	528	509
4	0	0	0	0	521	516
5	0	0	0	0	520	522
6	0	0	0	0	518	525
7	0	0	0	0	511	523
8	0	0	0	0	502	519
9	0	0	0	0	491	517
10	0	0	0	0	483	514
11	0	0	0	0	483	509
12	0	0	0	0	479	503
13	0	0	0	0	476	492
14	0	0	0	0	486	497
15	0	0	0	0	496	507
0	0	0	0	0	503	518
1	0	0	0	0	512	525
2	0	0	0	0	519	528
3	0	0	0	0	521	529
4	0	0	0	0	523	524
5	0	0	0	0	523	510
6	0	0	0	0	525	507
7	0	0	0	0	520	504
8	0	0	0	0	519	502
9	0	0	0	0	522	508
10	0	0	0	0	519	510
11	0	0	0	0	513	510
12	0	0	0	0	512	510
13	0	0	0	0	507	512
14	0	0	0	0	507	519
15	0	0	0	0	511	521
0	0	0	0	0	515	524
1	0	0	0	0	516	520
2	0	0	0	0	516	521
3	0	0	0	0	520	524
4	0	0	0	0	519	514
5	0	0	0	0	517	506
6	0	0	0	0	508	499
7	0	0	0	0	499	507
8	0	0	0	0	495	514
9	0	0	0	0	497	519
10	0	0	0	0	491	508
11	0	0	0	0	489	492
12	0	0	0	0	492	488
13	0	0	0	0	498	484
14	0	0	0	0	502	476
15	0	0	0	0	508	480
0	0	0	0	0	515	499
1	0	0	0	0	518	539
2	0	0	0	0	518	577
3	0	0	0	0	517	588
4	0	0	0	0	517	582
5	0	0	0	0	516	563
6	0	0	0	0	513	540
7	0	0	0	0	511	513
8	0	0	0	0	517	495
9	0	0	0	0	525	483
10	0	0	0	0	524	481
11	0	0	0	0	521	479
12	0	0	0	0	515	472
13	0	0	0	0	507	469
14	0	0	0	0	497	479
15	0	0	0	0	491	487
0	0	0	0	0	492	507
1	0	0	0	0	499	527
2	0	0	0	0	504	542
3	0	0	0	0	513	549
4	0	0	0	0	517	549
5	0	0	0	0	516	540
6	0	0	0	0	508	529
7	0	0	0	0	498	511
8	0	0	0	0	492	500
9	0	0	0	0	496	495
10	0	0	0	0	494	496
11	0	0	0	0	503	501
12	0	0	0	0	514	504
13	0	0	0	0	518	504
14	0	0	0	0	524	508
15	0	0	0	0	527	509
0	0	0	0	0	524	508
1	0	0	0	0	519	508
2	0	0	0	0	520	510
3	0	0	0	0	524	510
4	0	0	0	0	519	512
5	0	0	0	0	510	508
6	0	0	0	0	502	511
7	0	0	0	0	507	512
8	0	0	0	0	508	510
9	0	0	0	0	507	511
10	0	0	0	0	502	514
11	0	0	0	0	494	512
12	0	0	0	0	495	512
13	0	0	0	0	495	514
14	0	0	0	0	496	514
15	0	0	0	0	498	512
0	0	0	0	0	512	504
1	0	0	0	0	515	500
2	0	0	0	0	517	506
3	0	0	0	0	519	512
4	0	0	0	0	515	519
5	0	0	0	0	510	526
6	0	0	0	0	504	530
7	0	0	0	0	495	532
8	0	0	0	0	499	527
9	0	0	0	0	507	518
10	0	0	0	0	512	511
11	0	0	0	0	515	509
12	0	0	0	0	519	504
13	0	0	0	0	519	500
14	0	0	0	0	521	504
15	0	0	0	0	522	508
0	0	0	0	0	518	512
1	0	0	0	0	516	516
2	0	0	0	0	514	519
3	0	0	0	0	507	522
4	0	0	0	0	507	515
5	0	0	0	0	514	508
6	0	0	0	0	519	505
7	0	0	0	0	520	500
8	0	0	0	0	519	504
9	0	0	0	0	510	503
10	0	0	0	0	503	503
11	0	0	0	0	499	508
12	0	0	0	0	499	517
13	0	0	0	0	502	518
14	0	0	0	0	505	521
15	0	0	0	0	508	521
0	0	0	0	0	506	508
1	0	0	0	0	506	506
2	0	0	0	0	504	513
3	0	0	0	0	499	520
4	0	0	0	0	498	527
5	0	0	0	0	501	527
6	0	0	0	0	507	516
7	0	0	0	0	513	515
8	0	0	0	0	513	517
9	0	0	0	0	516	517
10	0	0	0	0	522	511
11	0	0	0	0	520	509
12	0	0	0	0	512	511
13	0	0	0	0	511	520
14	0	0	0	0	507	521
15	0	0	0	0	504	515
0	0	0	0	0	504	509
1	0	0	0	0	503	482
2	0	0	0	0	503	463
3	0	0	0	0	512	465
4	0	0	0	0	521	480
5	0	0	0	0	524	508
6	0	0	0	0	527	540
7	0	0	0	0	519	568
8	0	0	0	0	508	583
9	0	0	0	0	494	583
10	0	0	0	0	480	561
11	0	0	0	0	472	528
12	0	0	0	0	475	504
13	0	0	0	0	487	492
14	0	0	0	0	499	487
15	0	0	0	0	510	489
0	0	0	0	0	524	492
1	0	0	0	0	528	496
2	0	0	0	0	529	498
3	0	0	0	0	527	499
4	0	0	0	0	525	502
5	0	0	0	0	526	504
6	0	0	0	0	526	499
7	0	0	0	0	527	499
8	0	0	0	0	529	501
9	0	0	0	0	524	507
10	0	0	0	0	516	510
11	0	0	0	0	509	517
12	0	0	0	0	500	521
13	0	0	0	0	492	521
14	0	0	0	0	492	521
15	0	0	0	0	493	518
0	0	0	0	0	496	514
1	0	0	0	0	503	512
2	0	0	0	0	505	508
3	0	0	0	0	509	502
4	0	0	0	0	525	505
5	0	0	0	0	535	510
6	0	0	0	0	531	512
7	0	0	0	0	524	518
8	0	0	0	0	512	519
9	0	0	0	0	501	518
10	0	0	0	0	488	519
11	0	0	0	0	483	518
12	0	0	0	0	478	514
13	0	0	0	0	481	504
14	0	0	0	0	487	502
15	0	0	0	0	499	504
0	0	0	0	0	513	505
1	0	0	0	0	526	513
2	0	0	0	0	529	515
3	0	0	0	0	531	523
4	0	0	0	0	534	526
5	0	0	0	0	537	525
6	0	0	0	0	543	519
7	0	0	0	0	544	512
8	0	0	0	0	536	506
9	0	0	0	0	518	498
10	0	0	0	0	498	500
11	0	0	0	0	478	504
12	0	0	0	0	466	511
13	0	0	0	0	457	515
14	0	0	0	0	455	520
15	0	0	0	0	464	527
0	0	0	0	0	481	523
1	0	0	0	0	500	508
2	0	0	0	0	511	502
3	0	0	0	0	521	497
4	0	0	0	0	528	502
5	0	0	0	0	529	486
6	0	0	0	0	530	487
7	0	0	0	0	529	515
8	0	0	0	0	535	543
9	0	0	0	0	534	558
10	0	0	0	0	530	548
11	0	0	0	0	529	539
12	0	0	0	0	527	530
13	0	0	0	0	522	522
14	0	0	0	0	516	508
15	0	0	0	0	510	494
0	0	0	0	0	505	493
1	0	0	0	0	507	503
2	0	0	0	0	505	509
3	0	0	0	0	501	513
4	0	0	0	0	512	515
5	0	0	0	0	518	519
6	0	0	0	0	511	515
7	0	0	0	0	499	511
8	0	0	0	0	483	504
9	0	0	0	0	481	505
10	0	0	0	0	488	504
11	0	0	0	0	492	504
12	0	0	0	0	499	505
13	0	0	0	0	512	508
14	0	0	0	0	526	509
15	0	0	0	0	536	510
0	0	0	0	0	538	508
1	0	0	0	0	534	506
2	0	0	0	0	527	501
3	0	0	0	0	519	487
4	0	0	0	0	519	481
5	0	0	0	0	519	496
6	0	0	0	0	515	515
7	0	0	0	0	507	535
8	0	0	0	0	505	541
9	0	0	0	0	502	541
10	0	0	0	0	502	547
11	0	0	0	0	499	541
12	0	0	0	0	498	526
13	0	0	0	0	496	515
14	0	0	0	0	498	505
15	0	0	0	0	499	494
0	0	0	0	0	510	494
1	0	0	0	0	511	487
2	0	0	0	0	512	491
3	0	0	0	0	514	500
4	0	0	0	0	513	510
5	0	0	0	0	516	521
6	0	0	0	0	515	526
7	0	0	0	0	521	520
8	0	0	0	0	520	523
9	0	0	0	0	521	519
10	0	0	0	0	519	516
11	0	0	0	0	517	516
12	0	0	0	0	509	515
13	0	0	0	0	504	502
14	0	0	0	0	492	487
15	0	0	0	0	487	476
0	0	0	0	0	489	491
1	0	0	0	0	497	513
2	0	0	0	0	499	532
3	0	0	0	0	504	550
4	0	0	0	0	511	563
5	0	0	0	0	513	563
6	0	0	0	0	513	542
7	0	0	0	0	512	519
8	0	0	0	0	514	503
9	0	0	0	0	519	496
10	0	0	0	0	523	496
11	0	0	0	0	516	499
12	0	0	0	0	508	496
13	0	0	0	0	504	497
14	0	0	0	0	499	494
15	0	0	0	0	495	494
0	0	0	0	0	494	502
1	0	0	0	0	496	507
2	0	0	0	0	507	513
3	0	0	0	0	519	518
4	0	0	0	0	529	523
5	0	0	0	0	536	526
6	0	0	0	0	532	524
7	0	0	0	0	527	513
8	0	0	0	0	518	507
9	0	0	0	0	506	496
10	0	0	0	0	495	490
11	0	0	0	0	487	496
12	0	0	0	0	486	500
13	0	0	0	0	489	509
14	0	0	0	0	495	519
15	0	0	0	0	500	529
0	0	0	0	0	506	540
1	0	0	0	0	524	540
2	0	0	0	0	522	527
3	0	0	0	0	523	521
4	0	0	0	0	521	509
5	0	0	0	0	512	504
6	0	0	0	0	508	503
7	0	0	0	0	506	504
8	0	0	0	0	513	510
9	0	0	0	0	511	511
10	0	0	0	0	511	511
11	0	0	0	0	514	508
12	0	0	0	0	515	499
13	0	0	0	0	513	488
14	0	0	0	0	508	491
15	0	0	0	0	504	501
0	0	0	0	0	511	513
1	0	0	0	0	518	529
2	0	0	0	0	516	539
3	0	0	0	0	512	529
4	0	0	0	0	510	519
5	0	0	0	0	504	519
6	0	0	0	0	496	512
7	0	0	0	0	490	508
8	0	0	0	0	487	496
9	0	0	0	0	491	487
10	0	0	0	0	499	475
11	0	0	0	0	513	482
12	0	0	0	0	524	505
13	0	0	0	0	535	527
14	0	0	0	0	540	557
15	0	0	0	0	534	567
0	0	0	0	0	527	551
1	0	0	0	0	511	532
2	0	0	0	0	497	513
3	0	0	0	0	483	503
4	0	0	0	0	479	499
5	0	0	0	0	482	505
6	0	0	0	0	492	517
7	0	0	0	0	504	528
8	0	0	0	0	516	519
9	0	0	0	0	523	512
10	0	0	0	0	523	487
11	0	0	0	0	519	440
12	0	0	0	0	515	444
13	0	0	0	0	512	483
14	0	0	0	0	511	527
15	0	0	0	0	509	567
0	0	0	0	0	510	583
1	0	0	0	0	512	571
2	0	0	0	0	512	543
3	0	0	0	0	511	512
4	0	0	0	0	515	486
5	0	0	0	0	513	481
6	0	0	0	0	512	496
7	0	0	0	0	512	521
8	0	0	0	0	510	542
9	0	0	0	0	511	544
10	0	0	0	0	514	536
11	0	0	0	0	515	531
12	0	0	0	0	517	519
13	0	0	0	0	518	502
14	0	0	0	0	520	494
15	0	0	0	0	519	486
0	0	0	0	0	519	463
1	0	0	0	0	515	415
2	0	0	0	0	508	405
3	0	0	0	0	504	443
4	0	0	0	0	499	497
5	0	0	0	0	494	528
6	0	0	0	0	492	545
7	0	0	0	0	490	547
8	0	0	0	0	496	551
9	0	0	0	0	503	559
10	0	0	0	0	504	562
11	0	0	0	0	504	568
12	0	0	0	0	508	573
13	0	0	0	0	510	574
14	0	0	0	0	511	563
15	0	0	0	0	507	510
0	0	0	0	0	502	440
1	0	0	0	0	504	397
2	0	0	0	0	504	427
3	0	0	0	0	514	483
4	0	0	0	0	524	539
5	0	0	0	0	527	581
6	0	0	0	0	530	606
7	0	0	0	0	528	604
8	0	0	0	0	522	571
9	0	0	0	0	514	525
10	0	0	0	0	503	484
11	0	0	0	0	498	453
12	0	0	0	0	493	437
13	0	0	0	0	485	440
14	0	0	0	0	480	457
15	0	0	0	0	489	486
0	0	0	0	0	497	505
1	0	0	0	0	504	531
2	0	0	0	0	509	558
3	0	0	0	0	513	544
4	0	0	0	0	518	524
5	0	0	0	0	519	520
6	0	0	0	0	521	521
7	0	0	0	0	517	526
8	0	0	0	0	516	517
9	0	0	0	0	516	511
10	0	0	0	0	519	507
11	0	0	0	0	523	504
12	0	0	0	0	524	500
13	0	0	0	0	525	498
14	0	0	0	0	526	498
15	0	0	0	0	525	503
0	0	0	0	0	519	503
1	0	0	0	0	508	502
2	0	0	0	0	502	487
3	0	0	0	0	495	481
4	0	0	0	0	491	493
5	0	0	0	0	489	511
6	0	0	0	0	489	525
7	0	0	0	0	496	536
8	0	0	0	0	500	534
9	0	0	0	0	502	534
10	0	0	0	0	500	517
11	0	0	0	0	505	512
12	0	0	0	0	510	516
13	0	0	0	0	517	519
14	0	0	0	0	521	527
15	0	0	0	0	518	535
0	0	0	0	0	517	535
1	0	0	0	0	515	526
2	0	0	0	0	514	514
3	0	0	0	0	519	507
4	0	0	0	0	517	504
5	0	0	0	0	512	502
6	0	0	0	0	512	501
7	0	0	0	0	518	502
8	0	0	0	0	519	505
9	0	0	0	0	515	504
10	0	0	0	0	505	507
11	0	0	0	0	500	506
12	0	0	0	0	493	508
13	0	0	0	0	491	511
14	0	0	0	0	492	512
15	0	0	0	0	490	508
0	0	0	0	0	497	509
1	0	0	0	0	505	509
2	0	0	0	0	516	510
3	0	0	0	0	521	515
4	0	0	0	0	527	519
5	0	0	0	0	529	524
6	0	0	0	0	532	524
7	0	0	0	0	529	520
8	0	0	0	0	518	519
9	0	0	0	0	511	516
10	0	0	0	0	507	514
11	0	0	0	0	498	511
12	0	0	0	0	495	508
13	0	0	0	0	496	502
14	0	0	0	0	492	503
15	0	0	0	0	493	504
0	0	0	0	0	501	484
1	0	0	0	0	505	460
2	0	0	0	0	509	464
3	0	0	0	0	511	488
4	0	0	0	0	512	523
5	0	0	0	0	515	555
6	0	0	0	0	514	580
7	0	0	0	0	510	589
8	0	0	0	0	504	583
9	0	0	0	0	505	561
10	0	0	0	0	513	534
11	0	0	0	0	517	512
12	0	0	0	0	518	494
13	0	0	0	0	519	491
14	0	0	0	0	516	493
15	0	0	0	0	513	499
0	0	0	0	0	512	502
1	0	0	0	0	507	506
2	0	0	0	0	497	509
3	0	0	0	0	492	509
4	0	0	0	0	504	502
5	0	0	0	0	512	503
6	0	0	0	0	514	503
7	0	0	0	0	511	499
8	0	0	0	0	507	494
9	0	0	0	0	506	480
10	0	0	0	0	503	482
11	0	0	0	0	503	492
12	0	0	0	0	506	508
13	0	0	0	0	511	521
14	0	0	0	0	514	525
15	0	0	0	0	519	523
0	0	0	0	0	527	525
1	0	0	0	0	528	513
2	0	0	0	0	524	491
3	0	0	0	0	514	482
4	0	0	0	0	503	487
5	0	0	0	0	499	508
6	0	0	0	0	503	525
7	0	0	0	0	500	538
8	0	0	0	0	501	541
9	0	0	0	0	507	524
10	0	0	0	0	514	518
11	0	0	0	0	518	526
12	0	0	0	0	520	534
13	0	0	0	0	518	548
14	0	0	0	0	513	548
15	0	0	0	0	506	532
0	0	0	0	0	497	523
1	0	0	0	0	504	507
2	0	0	0	0	504	498
3	0	0	0	0	513	496
4	0	0	0	0	523	495
5	0	0	0	0	532	497
6	0	0	0	0	529	500
7	0	0	0	0	527	496
8	0	0	0	0	515	487
9	0	0	0	0	504	492
10	0	0	0	0	487	502
11	0	0	0	0	468	509
12	0	0	0	0	455	513
13	0	0	0	0	463	515
14	0	0	0	0	487	514
15	0	0	0	0	504	506
0	0	0	0	0	519	497
1	0	0	0	0	525	490
2	0	0	0	0	528	490
3	0	0	0	0	526	499
4	0	0	0	0	518	521
5	0	0	0	0	508	548
6	0	0	0	0	502	566
7	0	0	0	0	498	569
8	0	0	0	0	497	561
9	0	0	0	0	503	555
10	0	0	0	0	505	537
11	0	0	0	0	508	510
12	0	0	0	0	521	498
13	0	0	0	0	531	496
14	0	0	0	0	537	494
15	0	0	0	0	542	496
0	0	0	0	0	551	496
1	0	0	0	0	553	497
2	0	0	0	0	550	499
3	0	0	0	0	539	499
4	0	0	0	0	518	501
5	0	0	0	0	497	503
6	0	0	0	0	483	505
7	0	0	0	0	467	508
8	0	0	0	0	457	510
9	0	0	0	0	460	502
10	0	0	0	0	462	497
11	0	0	0	0	476	504
12	0	0	0	0	497	510
13	0	0	0	0	509	515
14	0	0	0	0	519	514
15	0	0	0	0	528	508
0	0	0	0	0	532	518
1	0	0	0	0	532	523
2	0	0	0	0	529	515
3	0	0	0	0	526	513
4	0	0	0	0	521	509
5	0	0	0	0	517	519
6	0	0	0	0	524	523
7	0	0	0	0	528	516
8	0	0	0	0	542	519
9	0	0	0	0	551	526
10	0	0	0	0	544	528
11	0	0	0	0	530	525
12	0	0	0	0	506	523
13	0	0	0	0	487	515
14	0	0	0	0	465	503
15	0	0	0	0	442	501
0	0	0	0	0	435	504
1	0	0	0	0	462	509
2	0	0	0	0	488	513
3	0	0	0	0	504	516
4	0	0	0	0	514	518
5	0	0	0	0	520	515
6	0	0	0	0	524	513
7	0	0	0	0	529	504
8	0	0	0	0	526	502
9	0	0	0	0	523	503
10	0	0	0	0	525	508
11	0	0	0	0	516	508
12	0	0	0	0	518	508
13	0	0	0	0	516	512
14	0	0	0	0	509	515
15	0	0	0	0	508	516
0	0	0	0	0	523	514
1	0	0	0	0	548	513
2	0	0	0	0	556	505
3	0	0	0	0	539	500
4	0	0	0	0	519	491
5	0	0	0	0	495	462
6	0	0	0	0	482	451
7	0	0	0	0	476	462
8	0	0	0	0	473	492
9	0	0	0	0	478	536
10	0	0	0	0	486	571
11	0	0	0	0	494	586
12	0	0	0	0	496	568
13	0	0	0	0	500	561
14	0	0	0	0	505	556
15	0	0	0	0	504	544
0	0	0	0	0	501	535
1	0	0	0	0	506	535
2	0	0	0	0	519	534
3	0	0	0	0	526	530
4	0	0	0	0	526	515
5	0	0	0	0	519	500
6	0	0	0	0	519	484
7	0	0	0	0	527	479
8	0	0	0	0	550	481
9	0	0	0	0	560	486
10	0	0	0	0	553	491
11	0	0	0	0	535	492
12	0	0	0	0	507	495
13	0	0	0	0	473	500
14	0	0	0	0	450	503
15	0	0	0	0	439	501
0	0	0	0	0	440	504
1	0	0	0	0	451	506
2	0	0	0	0	479	509
3	0	0	0	0	514	514
4	0	0	0	0	534	515
5	0	0	0	0	540	517
6	0	0	0	0	531	518
7	0	0	0	0	525	511
8	0	0	0	0	524	510
9	0	0	0	0	524	510
10	0	0	0	0	539	512
11	0	0	0	0	552	515
12	0	0	0	0	560	519
13	0	0	0	0	550	518
14	0	0	0	0	529	518
15	0	0	0	0	499	515
0	0	0	0	0	473	502
1	0	0	0	0	456	481
2	0	0	0	0	448	483
3	0	0	0	0	457	487
4	0	0	0	0	479	503
5	0	0	0	0	512	518
6	0	0	0	0	534	533
7	0	0	0	0	543	546
8	0	0	0	0	543	558
9	0	0	0	0	528	558
10	0	0	0	0	506	542
11	0	0	0	0	493	524
12	0	0	0	0	483	513
13	0	0	0	0	487	504
14	0	0	0	0	496	492
15	0	0	0	0	508	489
0	0	0	0	0	527	494
1	0	0	0	0	550	501
2	0	0	0	0	576	507
3	0	0	0	0	580	506
4	0	0	0	0	573	492
5	0	0	0	0	551	476
6	0	0	0	0	526	490
7	0	0	0	0	492	513
8	0	0	0	0	454	537
9	0	0	0	0	424	543
10	0	0	0	0	415	537
11	0	0	0	0	430	547
12	0	0	0	0	447	546
13	0	0	0	0	470	534
14	0	0	0	0	496	520
15	0	0	0	0	524	517
0	0	0	0	0	545	519
1	0	0	0	0	550	519
2	0	0	0	0	543	512
3	0	0	0	0	532	507
4	0	0	0	0	524	499
5	0	0	0	0	514	495
6	0	0	0	0	507	494
7	0	0	0	0	510	497
8	0	0	0	0	513	497
9	0	0	0	0	519	503
10	0	0	0	0	526	502
11	0	0	0	0	531	504
12	0	0	0	0	533	504
13	0	0	0	0	534	509
14	0	0	0	0	530	512
15	0	0	0	0	527	511
0	0	0	0	0	517	506
1	0	0	0	0	516	512
2	0	0	0	0	511	515
3	0	0	0	0	503	518
4	0	0	0	0	499	521
5	0	0	0	0	490	524
6	0	0	0	0	486	522
7	0	0	0	0	482	517
8	0	0	0	0	480	515
9	0	0	0	0	483	512
10	0	0	0	0	487	504
11	0	0	0	0	490	500
12	0	0	0	0	499	503
13	0	0	0	0	507	504
14	0	0	0	0	516	508
15	0	0	0	0	523	512
0	0	0	0	0	523	519
1	0	0	0	0	522	528
2	0	0	0	0	520	530
3	0	0	0	0	521	525
4	0	0	0	0	522	515
5	0	0	0	0	520	514
6	0	0	0	0	524	514
7	0	0	0	0	529	509
8	0	0	0	0	526	508
9	0	0	0	0	520	505
10	0	0	0	0	513	510
11	0	0	0	0	507	509
12	0	0	0	0	505	508
13	0	0	0	0	507	511
14	0	0	0	0	510	509
15	0	0	0	0	513	511
0	0	0	0	0	507	507
1	0	0	0	0	503	497
2	0	0	0	0	501	484
3	0	0	0	0	494	486
4	0	0	0	0	495	487
5	0	0	0	0	499	471
6	0	0	0	0	504	468
7	0	0	0	0	513	493
8	0	0	0	0	522	529
9	0	0	0	0	523	564
10	0	0	0	0	518	582
11	0	0	0	0	504	594
12	0	0	0	0	490	600
13	0	0	0	0	486	587
14	0	0	0	0	487	549
15	0	0	0	0	499	505
0	0	0	0	0	513	485
1	0	0	0	0	519	481
2	0	0	0	0	519	487
3	0	0	0	0	515	488
4	0	0	0	0	516	486
5	0	0	0	0	522	497
6	0	0	0	0	520	502
7	0	0	0	0	513	488
8	0	0	0	0	516	458
9	0	0	0	0	516	460
10	0	0	0	0	506	492
11	0	0	0	0	496	522
12	0	0	0	0	492	545
13	0	0	0	0	483	559
14	0	0	0	0	489	560
15	0	0	0	0	510	552
0	0	0	0	0	536	536
1	0	0	0	0	543	509
2	0	0	0	0	535	484
3	0	0	0	0	521	480
4	0	0	0	0	505	488
5	0	0	0	0	491	502
6	0	0	0	0	479	510
7	0	0	0	0	471	517
8	0	0	0	0	473	523
9	0	0	0	0	483	526
10	0	0	0	0	505	524
11	0	0	0	0	520	515
12	0	0	0	0	524	509
13	0	0	0	0	526	511
14	0	0	0	0	521	504
15	0	0	0	0	524	502
0	0	0	0	0	522	494
1	0	0	0	0	526	496
2	0	0	0	0	527	501
3	0	0	0	0	525	511
4	0	0	0	0	519	519
5	0	0	0	0	513	530
6	0	0	0	0	508	527
7	0	0	0	0	504	519
8	0	0	0	0	500	508
9	0	0	0	0	500	493
10	0	0	0	0	502	492
11	0	0	0	0	507	498
12	0	0	0	0	508	508
13	0	0	0	0	510	519
14	0	0	0	0	508	535
15	0	0	0	0	509	537
0	0	0	0	0	508	537
1	0	0	0	0	505	535
2	0	0	0	0	505	526
3	0	0	0	0	505	517
4	0	0	0	0	509	513
5	0	0	0	0	511	509
6	0	0	0	0	514	505
7	0	0	0	0	512	504
8	0	0	0	0	510	504
9	0	0	0	0	510	502
10	0	0	0	0	510	504
11	0	0	0	0	511	504
12	0	0	0	0	515	507
13	0	0	0	0	515	508
14	0	0	0	0	516	507
15	0	0	0	0	511	507
0	0	0	0	0	509	511
1	0	0	0	0	506	512
2	0	0	0	0	502	513
3	0	0	0	0	503	511
4	0	0	0	0	503	512
5	0	0	0	0	503	516
6	0	0	0	0	508	511
7	0	0	0	0	512	505
8	0	0	0	0	515	508
9	0	0	0	0	518	505
10	0	0	0	0	514	500
11	0	0	0	0	512	507
12	0	0	0	0	510	513
13	0	0	0	0	508	517
14	0	0	0	0	503	507
15	0	0	0	0	503	508
0	0	0	0	0	505	519
1	0	0	0	0	506	531
2	0	0	0	0	511	529
3	0	0	0	0	516	507
4	0	0	0	0	529	497
5	0	0	0	0	534	507
6	0	0	0	0	532	521
7	0	0	0	0	523	524
8	0	0	0	0	515	507
9	0	0	0	0	504	513
10	0	0	0	0	497	538
11	0	0	0	0	491	543
12	0	0	0	0	488	542
13	0	0	0	0	499	531
14	0	0	0	0	507	525
15	0	0	0	0	502	519
0	0	0	0	0	495	513
1	0	0	0	0	487	508
2	0	0	0	0	481	505
