# OpenSignals Text File Format. Version 1
# {"98:D3:11:FE:05:A2": {"position": 0, "device": "bitalino_rev", "device name": "98:D3:11:FE:05:A2", "device connection": "BTH98:D3:11:FE:05:A2", "sampling rate": 1000, "resolution": [4, 1, 1, 1, 1, 10, 10], "firmware version": 1282, "comments": "", "keywords": "", "mode": 0, "sync interval": 2, "date": "2026-6-12", "time": "15:30:19.808", "channels": [1, 2], "sensor": ["EMGBITREV", "EMGBITREV"], "label": ["A1", "A2"], "column": ["nSeq", "I1", "I2", "O1", "O2", "A1", "A2"], "special": [{}, {}], "digital IO": [0, 0, 1, 1]}}
# EndOfHeader
0	0	0	0	0	510	509
1	0	0	0	0	519	510
2	0	0	0	0	524	510
3	0	0	0	0	525	507
4	0	0	0	0	527	507
5	0	0	0	0	523	508
6	0	0	0	0	514	508
7	0	0	0	0	503	510
8	0	0	0	0	501	510
9	0	0	0	0	501	512
10	0	0	0	0	504	522
11	0	0	0	0	504	532
12	0	0	0	0	501	532
13	0	0	0	0	502	526
14	0	0	0	0	501	514
15	0	0	0	0	500	503
0	0	0	0	0	507	490
1	0	0	0	0	505	477
2	0	0	0	0	506	476
3	0	0	0	0	508	482
4	0	0	0	0	505	491
5	0	0	0	0	506	498
6	0	0	0	0	505	510
7	0	0	0	0	505	510
8	0	0	0	0	508	510
9	0	0	0	0	510	510
10	0	0	0	0	511	510
11	0	0	0	0	511	509
12	0	0	0	0	510	510
13	0	0	0	0	509	511
14	0	0	0	0	509	511
15	0	0	0	0	510	511
0	0	0	0	0	512	512
1	0	0	0	0	511	513
2	0	0	0	0	512	512
3	0	0	0	0	509	511
4	0	0	0	0	492	510
5	0	0	0	0	467	506
6	0	0	0	0	455	508
7	0	0	0	0	465	507
8	0	0	0	0	487	499
9	0	0	0	0	513	501
10	0	0	0	0	536	499
11	0	0	0	0	558	499
12	0	0	0	0	564	509
13	0	0	0	0	556	511
14	0	0	0	0	541	509
15	0	0	0	0	519	508
0	0	0	0	0	503	505
1	0	0	0	0	496	504
2	0	0	0	0	492	505
3	0	0	0	0	493	505
4	0	0	0	0	487	513
5	0	0	0	0	472	514
6	0	0	0	0	461	518
7	0	0	0	0	468	526
8	0	0	0	0	482	527
9	0	0	0	0	504	512
10	0	0	0	0	523	494
11	0	0	0	0	539	483
12	0	0	0	0	552	485
13	0	0	0	0	548	487
14	0	0	0	0	528	492
15	0	0	0	0	515	497
0	0	0	0	0	511	504
1	0	0	0	0	508	512
2	0	0	0	0	502	509
3	0	0	0	0	499	505
4	0	0	0	0	504	502
5	0	0	0	0	503	503
6	0	0	0	0	508	505
7	0	0	0	0	507	506
8	0	0	0	0	505	507
9	0	0	0	0	506	509
10	0	0	0	0	506	513
11	0	0	0	0	505	515
12	0	0	0	0	504	513
13	0	0	0	0	503	514
14	0	0	0	0	504	513
15	0	0	0	0	507	517
0	0	0	0	0	506	524
1	0	0	0	0	508	523
2	0	0	0	0	504	517
3	0	0	0	0	502	510
4	0	0	0	0	502	501
5	0	0	0	0	501	496
6	0	0	0	0	504	489
7	0	0	0	0	505	493
8	0	0	0	0	507	494
9	0	0	0	0	505	499
10	0	0	0	0	504	506
11	0	0	0	0	505	508
12	0	0	0	0	506	510
13	0	0	0	0	503	512
14	0	0	0	0	507	514
15	0	0	0	0	508	510
0	0	0	0	0	512	511
1	0	0	0	0	513	511
2	0	0	0	0	510	507
3	0	0	0	0	495	509
4	0	0	0	0	478	511
5	0	0	0	0	474	511
6	0	0	0	0	483	509
7	0	0	0	0	502	507
8	0	0	0	0	522	504
9	0	0	0	0	534	500
10	0	0	0	0	547	501
11	0	0	0	0	556	502
12	0	0	0	0	548	503
13	0	0	0	0	526	506
14	0	0	0	0	512	510
15	0	0	0	0	501	508
0	0	0	0	0	495	510
1	0	0	0	0	495	510
2	0	0	0	0	497	509
3	0	0	0	0	497	508
4	0	0	0	0	497	508
5	0	0	0	0	500	505
6	0	0	0	0	499	509
7	0	0	0	0	498	513
8	0	0	0	0	498	520
9	0	0	0	0	500	517
10	0	0	0	0	497	510
11	0	0	0	0	494	504
12	0	0	0	0	499	502
13	0	0	0	0	503	503
14	0	0	0	0	505	498
15	0	0	0	0	508	495
0	0	0	0	0	512	493
1	0	0	0	0	515	499
2	0	0	0	0	514	503
3	0	0	0	0	511	505
4	0	0	0	0	507	507
5	0	0	0	0	504	509
6	0	0	0	0	505	510
7	0	0	0	0	499	512
8	0	0	0	0	497	511
9	0	0	0	0	494	510
10	0	0	0	0	498	510
11	0	0	0	0	504	511
12	0	0	0	0	505	510
13	0	0	0	0	504	508
14	0	0	0	0	506	509
15	0	0	0	0	510	509
0	0	0	0	0	513	514
1	0	0	0	0	511	524
2	0	0	0	0	512	531
3	0	0	0	0	510	522
4	0	0	0	0	510	508
5	0	0	0	0	509	494
6	0	0	0	0	511	486
7	0	0	0	0	506	476
8	0	0	0	0	502	474
9	0	0	0	0	500	480
10	0	0	0	0	501	493
11	0	0	0	0	503	504
12	0	0	0	0	503	513
13	0	0	0	0	502	522
14	0	0	0	0	501	520
15	0	0	0	0	501	519
0	0	0	0	0	500	515
1	0	0	0	0	504	511
2	0	0	0	0	499	507
3	0	0	0	0	495	504
4	0	0	0	0	498	502
5	0	0	0	0	505	504
6	0	0	0	0	514	507
7	0	0	0	0	520	510
8	0	0	0	0	525	510
9	0	0	0	0	521	511
10	0	0	0	0	519	510
11	0	0	0	0	514	510
12	0	0	0	0	509	508
13	0	0	0	0	503	510
14	0	0	0	0	500	508
15	0	0	0	0	500	508
0	0	0	0	0	504	509
1	0	0	0	0	508	509
2	0	0	0	0	511	510
3	0	0	0	0	507	510
4	0	0	0	0	487	512
5	0	0	0	0	458	508
6	0	0	0	0	457	510
7	0	0	0	0	477	514
8	0	0	0	0	502	515
9	0	0	0	0	531	511
10	0	0	0	0	550	501
11	0	0	0	0	566	498
12	0	0	0	0	571	494
13	0	0	0	0	557	494
14	0	0	0	0	535	495
15	0	0	0	0	514	499
0	0	0	0	0	501	502
1	0	0	0	0	491	505
2	0	0	0	0	483	508
3	0	0	0	0	478	510
4	0	0	0	0	477	517
5	0	0	0	0	486	517
6	0	0	0	0	496	516
7	0	0	0	0	504	514
8	0	0	0	0	510	507
9	0	0	0	0	517	505
10	0	0	0	0	519	499
11	0	0	0	0	519	498
12	0	0	0	0	513	501
13	0	0	0	0	511	501
14	0	0	0	0	510	504
15	0	0	0	0	507	511
0	0	0	0	0	506	513
1	0	0	0	0	505	513
2	0	0	0	0	502	510
3	0	0	0	0	504	506
4	0	0	0	0	501	508
5	0	0	0	0	504	512
6	0	0	0	0	502	511
7	0	0	0	0	503	509
8	0	0	0	0	504	508
9	0	0	0	0	504	507
10	0	0	0	0	501	505
11	0	0	0	0	498	502
12	0	0	0	0	502	496
13	0	0	0	0	502	505
14	0	0	0	0	505	519
15	0	0	0	0	509	525
0	0	0	0	0	512	516
1	0	0	0	0	515	506
2	0	0	0	0	515	499
3	0	0	0	0	515	499
4	0	0	0	0	513	496
5	0	0	0	0	508	491
6	0	0	0	0	507	495
7	0	0	0	0	506	497
8	0	0	0	0	503	497
9	0	0	0	0	500	498
10	0	0	0	0	496	498
11	0	0	0	0	495	502
12	0	0	0	0	501	510
13	0	0	0	0	503	511
14	0	0	0	0	505	512
15	0	0	0	0	505	514
0	0	0	0	0	509	516
1	0	0	0	0	518	515
2	0	0	0	0	521	515
3	0	0	0	0	523	511
4	0	0	0	0	520	510
5	0	0	0	0	516	509
6	0	0	0	0	514	510
7	0	0	0	0	509	510
8	0	0	0	0	505	510
9	0	0	0	0	502	509
10	0	0	0	0	503	507
11	0	0	0	0	502	509
12	0	0	0	0	501	514
13	0	0	0	0	500	513
14	0	0	0	0	500	509
15	0	0	0	0	502	510
0	0	0	0	0	504	509
1	0	0	0	0	505	507
2	0	0	0	0	507	505
3	0	0	0	0	510	499
4	0	0	0	0	515	497
5	0	0	0	0	511	500
6	0	0	0	0	509	506
7	0	0	0	0	508	515
8	0	0	0	0	509	518
9	0	0	0	0	510	515
10	0	0	0	0	509	510
11	0	0	0	0	509	511
12	0	0	0	0	506	506
13	0	0	0	0	504	500
14	0	0	0	0	505	494
15	0	0	0	0	500	492
0	0	0	0	0	499	494
1	0	0	0	0	496	495
2	0	0	0	0	497	495
3	0	0	0	0	487	501
4	0	0	0	0	479	508
5	0	0	0	0	486	511
6	0	0	0	0	504	512
7	0	0	0	0	520	515
8	0	0	0	0	537	513
9	0	0	0	0	542	511
10	0	0	0	0	547	513
11	0	0	0	0	541	513
12	0	0	0	0	526	510
13	0	0	0	0	511	508
14	0	0	0	0	501	507
15	0	0	0	0	495	505
0	0	0	0	0	496	510
1	0	0	0	0	497	509
2	0	0	0	0	497	512
3	0	0	0	0	498	512
4	0	0	0	0	493	510
5	0	0	0	0	490	508
6	0	0	0	0	496	507
7	0	0	0	0	499	500
8	0	0	0	0	508	498
9	0	0	0	0	512	497
10	0	0	0	0	518	498
11	0	0	0	0	523	503
12	0	0	0	0	521	505
13	0	0	0	0	515	508
14	0	0	0	0	508	507
15	0	0	0	0	504	510
0	0	0	0	0	502	510
1	0	0	0	0	504	509
2	0	0	0	0	504	511
3	0	0	0	0	503	509
4	0	0	0	0	503	511
5	0	0	0	0	499	514
6	0	0	0	0	499	524
7	0	0	0	0	500	526
8	0	0	0	0	500	516
9	0	0	0	0	504	510
10	0	0	0	0	507	504
11	0	0	0	0	513	511
12	0	0	0	0	516	504
13	0	0	0	0	520	494
14	0	0	0	0	516	483
15	0	0	0	0	512	485
0	0	0	0	0	511	487
1	0	0	0	0	508	491
2	0	0	0	0	506	500
3	0	0	0	0	504	505
4	0	0	0	0	504	507
5	0	0	0	0	506	508
6	0	0	0	0	505	507
7	0	0	0	0	506	505
8	0	0	0	0	506	508
9	0	0	0	0	507	513
10	0	0	0	0	508	519
11	0	0	0	0	505	523
12	0	0	0	0	503	517
13	0	0	0	0	493	517
14	0	0	0	0	494	516
15	0	0	0	0	494	505
0	0	0	0	0	503	497
1	0	0	0	0	511	495
2	0	0	0	0	517	499
3	0	0	0	0	519	500
4	0	0	0	0	522	500
5	0	0	0	0	521	502
6	0	0	0	0	517	506
7	0	0	0	0	513	508
8	0	0	0	0	508	508
9	0	0	0	0	503	508
10	0	0	0	0	506	511
11	0	0	0	0	503	509
12	0	0	0	0	500	512
13	0	0	0	0	502	510
14	0	0	0	0	505	512
15	0	0	0	0	507	510
0	0	0	0	0	501	510
1	0	0	0	0	500	508
2	0	0	0	0	499	507
3	0	0	0	0	499	507
4	0	0	0	0	500	508
5	0	0	0	0	505	509
6	0	0	0	0	510	507
7	0	0	0	0	516	507
8	0	0	0	0	522	506
9	0	0	0	0	524	507
10	0	0	0	0	522	508
11	0	0	0	0	519	508
12	0	0	0	0	512	508
13	0	0	0	0	509	508
14	0	0	0	0	505	507
15	0	0	0	0	502	511
0	0	0	0	0	499	514
1	0	0	0	0	503	512
2	0	0	0	0	503	508
3	0	0	0	0	501	506
4	0	0	0	0	502	504
5	0	0	0	0	500	506
6	0	0	0	0	503	508
7	0	0	0	0	504	511
8	0	0	0	0	508	512
9	0	0	0	0	505	508
10	0	0	0	0	500	501
11	0	0	0	0	497	496
12	0	0	0	0	499	491
13	0	0	0	0	503	492
14	0	0	0	0	510	492
15	0	0	0	0	512	497
0	0	0	0	0	517	502
1	0	0	0	0	518	504
2	0	0	0	0	513	507
3	0	0	0	0	509	508
4	0	0	0	0	507	509
5	0	0	0	0	506	511
6	0	0	0	0	507	513
7	0	0	0	0	505	513
8	0	0	0	0	507	512
9	0	0	0	0	507	512
10	0	0	0	0	507	508
11	0	0	0	0	507	510
12	0	0	0	0	503	510
13	0	0	0	0	500	511
14	0	0	0	0	502	516
15	0	0	0	0	501	519
0	0	0	0	0	504	517
1	0	0	0	0	509	509
2	0	0	0	0	510	502
3	0	0	0	0	514	501
4	0	0	0	0	519	500
5	0	0	0	0	515	497
6	0	0	0	0	512	496
7	0	0	0	0	511	500
8	0	0	0	0	507	504
9	0	0	0	0	503	504
10	0	0	0	0	505	504
11	0	0	0	0	506	504
12	0	0	0	0	508	507
13	0	0	0	0	507	508
14	0	0	0	0	504	512
15	0	0	0	0	506	517
0	0	0	0	0	507	526
1	0	0	0	0	504	523
2	0	0	0	0	501	514
3	0	0	0	0	496	508
4	0	0	0	0	491	506
5	0	0	0	0	491	504
6	0	0	0	0	492	498
7	0	0	0	0	494	493
8	0	0	0	0	505	492
9	0	0	0	0	515	494
10	0	0	0	0	526	496
11	0	0	0	0	535	503
12	0	0	0	0	535	513
13	0	0	0	0	530	516
14	0	0	0	0	529	516
15	0	0	0	0	518	512
0	0	0	0	0	508	508
1	0	0	0	0	503	504
2	0	0	0	0	498	498
3	0	0	0	0	496	497
4	0	0	0	0	498	499
5	0	0	0	0	499	503
6	0	0	0	0	502	509
7	0	0	0	0	501	512
8	0	0	0	0	504	510
9	0	0	0	0	503	512
10	0	0	0	0	504	511
11	0	0	0	0	503	508
12	0	0	0	0	504	510
13	0	0	0	0	505	509
14	0	0	0	0	509	510
15	0	0	0	0	511	510
0	0	0	0	0	513	509
1	0	0	0	0	512	510
2	0	0	0	0	509	510
3	0	0	0	0	505	508
4	0	0	0	0	507	509
5	0	0	0	0	506	507
6	0	0	0	0	507	511
7	0	0	0	0	509	512
8	0	0	0	0	508	512
9	0	0	0	0	507	509
10	0	0	0	0	504	508
11	0	0	0	0	504	505
12	0	0	0	0	504	499
13	0	0	0	0	505	497
14	0	0	0	0	505	498
15	0	0	0	0	508	498
0	0	0	0	0	506	502
1	0	0	0	0	507	505
2	0	0	0	0	508	510
3	0	0	0	0	508	511
4	0	0	0	0	511	512
5	0	0	0	0	512	509
6	0	0	0	0	508	505
7	0	0	0	0	508	507
8	0	0	0	0	507	506
9	0	0	0	0	505	503
10	0	0	0	0	507	508
11	0	0	0	0	505	510
12	0	0	0	0	497	509
13	0	0	0	0	480	507
14	0	0	0	0	481	505
15	0	0	0	0	495	506
0	0	0	0	0	508	504
1	0	0	0	0	519	505
2	0	0	0	0	530	510
3	0	0	0	0	536	510
4	0	0	0	0	540	512
5	0	0	0	0	532	510
6	0	0	0	0	515	507
7	0	0	0	0	506	507
8	0	0	0	0	500	508
9	0	0	0	0	499	514
10	0	0	0	0	497	517
11	0	0	0	0	496	513
12	0	0	0	0	498	511
13	0	0	0	0	499	504
14	0	0	0	0	501	500
15	0	0	0	0	501	497
0	0	0	0	0	501	492
1	0	0	0	0	503	495
2	0	0	0	0	509	497
3	0	0	0	0	511	496
4	0	0	0	0	509	496
5	0	0	0	0	513	503
6	0	0	0	0	512	504
7	0	0	0	0	512	508
8	0	0	0	0	511	507
9	0	0	0	0	507	508
10	0	0	0	0	504	515
11	0	0	0	0	504	521
12	0	0	0	0	505	520
13	0	0	0	0	504	516
14	0	0	0	0	501	511
15	0	0	0	0	503	510
0	0	0	0	0	503	507
1	0	0	0	0	500	501
2	0	0	0	0	496	497
3	0	0	0	0	496	508
4	0	0	0	0	500	516
5	0	0	0	0	504	513
6	0	0	0	0	509	507
7	0	0	0	0	514	508
8	0	0	0	0	518	507
9	0	0	0	0	521	507
10	0	0	0	0	524	504
11	0	0	0	0	515	500
12	0	0	0	0	512	503
13	0	0	0	0	507	505
14	0	0	0	0	505	501
15	0	0	0	0	503	504
0	0	0	0	0	499	508
1	0	0	0	0	501	510
2	0	0	0	0	501	507
3	0	0	0	0	504	507
4	0	0	0	0	507	507
5	0	0	0	0	504	502
6	0	0	0	0	505	503
7	0	0	0	0	505	503
8	0	0	0	0	502	508
9	0	0	0	0	504	508
10	0	0	0	0	505	511
11	0	0	0	0	507	513
12	0	0	0	0	506	512
13	0	0	0	0	503	511
14	0	0	0	0	502	515
15	0	0	0	0	502	513
0	0	0	0	0	505	512
1	0	0	0	0	510	510
2	0	0	0	0	510	507
3	0	0	0	0	510	502
4	0	0	0	0	511	501
5	0	0	0	0	516	501
6	0	0	0	0	514	504
7	0	0	0	0	510	504
8	0	0	0	0	511	504
9	0	0	0	0	510	507
10	0	0	0	0	505	510
11	0	0	0	0	502	511
12	0	0	0	0	504	509
13	0	0	0	0	503	511
14	0	0	0	0	505	508
15	0	0	0	0	507	502
0	0	0	0	0	508	502
1	0	0	0	0	510	504
2	0	0	0	0	508	506
3	0	0	0	0	503	508
4	0	0	0	0	503	512
5	0	0	0	0	505	518
6	0	0	0	0	510	515
7	0	0	0	0	508	512
8	0	0	0	0	511	506
9	0	0	0	0	511	497
10	0	0	0	0	513	491
11	0	0	0	0	512	489
12	0	0	0	0	508	490
13	0	0	0	0	504	498
14	0	0	0	0	502	503
15	0	0	0	0	503	510
0	0	0	0	0	504	514
1	0	0	0	0	504	515
2	0	0	0	0	504	512
3	0	0	0	0	504	512
4	0	0	0	0	500	511
5	0	0	0	0	498	511
6	0	0	0	0	498	508
7	0	0	0	0	506	509
8	0	0	0	0	511	507
9	0	0	0	0	514	510
10	0	0	0	0	517	507
11	0	0	0	0	515	509
12	0	0	0	0	511	510
13	0	0	0	0	508	511
14	0	0	0	0	506	510
15	0	0	0	0	503	510
0	0	0	0	0	502	509
1	0	0	0	0	504	508
2	0	0	0	0	504	509
3	0	0	0	0	501	512
4	0	0	0	0	504	511
5	0	0	0	0	501	512
6	0	0	0	0	498	510
7	0	0	0	0	500	506
8	0	0	0	0	501	498
9	0	0	0	0	506	493
10	0	0	0	0	511	489
11	0	0	0	0	515	495
12	0	0	0	0	520	502
13	0	0	0	0	520	509
14	0	0	0	0	519	513
15	0	0	0	0	512	511
0	0	0	0	0	509	506
1	0	0	0	0	509	505
2	0	0	0	0	505	503
3	0	0	0	0	502	507
4	0	0	0	0	501	508
5	0	0	0	0	504	512
6	0	0	0	0	505	514
7	0	0	0	0	504	513
8	0	0	0	0	504	509
9	0	0	0	0	503	508
10	0	0	0	0	506	506
11	0	0	0	0	504	507
12	0	0	0	0	499	506
13	0	0	0	0	500	508
14	0	0	0	0	499	507
15	0	0	0	0	504	504
0	0	0	0	0	511	503
1	0	0	0	0	512	502
2	0	0	0	0	513	503
3	0	0	0	0	515	501
4	0	0	0	0	512	502
5	0	0	0	0	510	506
6	0	0	0	0	510	506
7	0	0	0	0	510	506
8	0	0	0	0	507	506
9	0	0	0	0	508	508
10	0	0	0	0	506	509
11	0	0	0	0	509	509
12	0	0	0	0	507	511
13	0	0	0	0	502	512
14	0	0	0	0	502	520
15	0	0	0	0	499	522
0	0	0	0	0	496	513
1	0	0	0	0	492	508
2	0	0	0	0	494	501
3	0	0	0	0	495	496
4	0	0	0	0	501	498
5	0	0	0	0	503	499
6	0	0	0	0	507	510
7	0	0	0	0	515	510
8	0	0	0	0	519	513
9	0	0	0	0	526	514
10	0	0	0	0	529	513
11	0	0	0	0	527	508
12	0	0	0	0	524	501
13	0	0	0	0	519	504
14	0	0	0	0	513	505
15	0	0	0	0	507	505
0	0	0	0	0	499	506
1	0	0	0	0	495	507
2	0	0	0	0	488	505
3	0	0	0	0	489	508
4	0	0	0	0	497	509
5	0	0	0	0	501	508
6	0	0	0	0	504	510
7	0	0	0	0	507	508
8	0	0	0	0	513	507
9	0	0	0	0	515	507
10	0	0	0	0	518	504
11	0	0	0	0	515	505
12	0	0	0	0	512	506
13	0	0	0	0	511	503
14	0	0	0	0	510	506
15	0	0	0	0	508	508
0	0	0	0	0	508	516
1	0	0	0	0	503	518
2	0	0	0	0	498	515
3	0	0	0	0	500	507
4	0	0	0	0	500	499
5	0	0	0	0	503	494
6	0	0	0	0	505	493
7	0	0	0	0	507	489
8	0	0	0	0	506	498
9	0	0	0	0	504	502
10	0	0	0	0	505	505
11	0	0	0	0	504	511
12	0	0	0	0	504	515
13	0	0	0	0	507	520
14	0	0	0	0	510	523
15	0	0	0	0	508	514
0	0	0	0	0	511	507
1	0	0	0	0	509	501
2	0	0	0	0	506	496
3	0	0	0	0	502	492
4	0	0	0	0	499	492
5	0	0	0	0	503	495
6	0	0	0	0	505	504
7	0	0	0	0	506	512
8	0	0	0	0	508	518
9	0	0	0	0	510	522
10	0	0	0	0	512	518
11	0	0	0	0	511	515
12	0	0	0	0	508	514
13	0	0	0	0	509	508
14	0	0	0	0	512	501
15	0	0	0	0	512	496
0	0	0	0	0	509	494
1	0	0	0	0	510	499
2	0	0	0	0	510	505
3	0	0	0	0	509	511
4	0	0	0	0	508	511
5	0	0	0	0	505	511
6	0	0	0	0	503	512
7	0	0	0	0	506	513
8	0	0	0	0	504	511
9	0	0	0	0	501	508
10	0	0	0	0	504	504
11	0	0	0	0	505	500
12	0	0	0	0	507	508
13	0	0	0	0	510	507
14	0	0	0	0	508	509
15	0	0	0	0	508	509
0	0	0	0	0	507	510
1	0	0	0	0	507	514
2	0	0	0	0	506	513
3	0	0	0	0	505	508
4	0	0	0	0	505	504
5	0	0	0	0	507	496
6	0	0	0	0	511	493
7	0	0	0	0	507	494
8	0	0	0	0	506	496
9	0	0	0	0	508	498
10	0	0	0	0	510	505
11	0	0	0	0	508	509
12	0	0	0	0	508	512
13	0	0	0	0	510	513
14	0	0	0	0	507	510
15	0	0	0	0	503	511
0	0	0	0	0	502	510
1	0	0	0	0	503	511
2	0	0	0	0	505	511
3	0	0	0	0	504	516
4	0	0	0	0	508	515
5	0	0	0	0	507	513
6	0	0	0	0	510	512
7	0	0	0	0	509	508
8	0	0	0	0	503	507
9	0	0	0	0	495	503
10	0	0	0	0	493	500
11	0	0	0	0	491	500
12	0	0	0	0	499	501
13	0	0	0	0	507	501
14	0	0	0	0	511	499
15	0	0	0	0	519	503
0	0	0	0	0	524	504
1	0	0	0	0	528	510
2	0	0	0	0	523	512
3	0	0	0	0	516	515
4	0	0	0	0	511	512
5	0	0	0	0	509	512
6	0	0	0	0	507	508
7	0	0	0	0	505	508
8	0	0	0	0	503	506
9	0	0	0	0	504	504
10	0	0	0	0	501	507
11	0	0	0	0	504	506
12	0	0	0	0	502	506
13	0	0	0	0	499	504
14	0	0	0	0	503	502
15	0	0	0	0	500	505
0	0	0	0	0	503	501
1	0	0	0	0	505	503
2	0	0	0	0	508	505
3	0	0	0	0	504	507
4	0	0	0	0	509	510
5	0	0	0	0	507	511
6	0	0	0	0	506	509
7	0	0	0	0	506	511
8	0	0	0	0	506	510
9	0	0	0	0	508	510
10	0	0	0	0	508	511
11	0	0	0	0	508	508
12	0	0	0	0	508	508
13	0	0	0	0	506	507
14	0	0	0	0	506	507
15	0	0	0	0	504	506
0	0	0	0	0	507	507
1	0	0	0	0	512	508
2	0	0	0	0	511	512
3	0	0	0	0	510	513
4	0	0	0	0	508	510
5	0	0	0	0	510	508
6	0	0	0	0	509	507
7	0	0	0	0	508	509
8	0	0	0	0	508	516
9	0	0	0	0	509	517
10	0	0	0	0	505	511
11	0	0	0	0	506	503
12	0	0	0	0	503	489
13	0	0	0	0	503	487
14	0	0	0	0	502	488
15	0	0	0	0	506	490
0	0	0	0	0	505	496
1	0	0	0	0	507	509
2	0	0	0	0	507	520
3	0	0	0	0	505	526
4	0	0	0	0	489	523
5	0	0	0	0	474	521
6	0	0	0	0	472	520
7	0	0	0	0	484	515
8	0	0	0	0	503	509
9	0	0	0	0	521	499
10	0	0	0	0	540	489
11	0	0	0	0	551	483
12	0	0	0	0	551	483
13	0	0	0	0	546	487
14	0	0	0	0	529	494
15	0	0	0	0	514	505
0	0	0	0	0	506	515
1	0	0	0	0	495	518
2	0	0	0	0	496	519
3	0	0	0	0	496	519
4	0	0	0	0	493	514
5	0	0	0	0	492	503
6	0	0	0	0	491	499
7	0	0	0	0	492	502
8	0	0	0	0	496	504
9	0	0	0	0	499	505
10	0	0	0	0	507	505
11	0	0	0	0	514	508
12	0	0	0	0	512	511
13	0	0	0	0	513	511
14	0	0	0	0	515	513
15	0	0	0	0	511	512
0	0	0	0	0	507	511
1	0	0	0	0	505	511
2	0	0	0	0	505	512
3	0	0	0	0	508	511
4	0	0	0	0	505	507
5	0	0	0	0	508	509
6	0	0	0	0	507	507
7	0	0	0	0	509	507
8	0	0	0	0	507	509
9	0	0	0	0	507	510
10	0	0	0	0	507	507
11	0	0	0	0	505	508
12	0	0	0	0	505	508
13	0	0	0	0	507	507
14	0	0	0	0	505	508
15	0	0	0	0	506	510
0	0	0	0	0	507	507
1	0	0	0	0	505	507
2	0	0	0	0	505	505
3	0	0	0	0	506	507
4	0	0	0	0	505	507
5	0	0	0	0	508	508
6	0	0	0	0	508	509
7	0	0	0	0	508	505
8	0	0	0	0	505	503
9	0	0	0	0	507	502
10	0	0	0	0	509	502
11	0	0	0	0	507	501
12	0	0	0	0	508	507
13	0	0	0	0	505	509
14	0	0	0	0	503	511
15	0	0	0	0	504	510
0	0	0	0	0	504	509
1	0	0	0	0	506	511
2	0	0	0	0	506	509
3	0	0	0	0	506	503
4	0	0	0	0	509	501
5	0	0	0	0	508	500
6	0	0	0	0	507	502
7	0	0	0	0	505	503
8	0	0	0	0	508	507
9	0	0	0	0	506	505
10	0	0	0	0	507	508
11	0	0	0	0	505	510
12	0	0	0	0	508	510
13	0	0	0	0	509	510
14	0	0	0	0	507	513
15	0	0	0	0	505	514
0	0	0	0	0	505	515
1	0	0	0	0	505	511
2	0	0	0	0	508	507
3	0	0	0	0	511	506
4	0	0	0	0	509	505
5	0	0	0	0	510	501
6	0	0	0	0	510	500
7	0	0	0	0	508	508
8	0	0	0	0	504	515
9	0	0	0	0	502	519
10	0	0	0	0	503	515
11	0	0	0	0	502	507
12	0	0	0	0	504	498
13	0	0	0	0	507	491
14	0	0	0	0	509	489
15	0	0	0	0	512	494
0	0	0	0	0	511	503
1	0	0	0	0	507	509
2	0	0	0	0	510	511
3	0	0	0	0	511	516
4	0	0	0	0	510	517
5	0	0	0	0	507	518
6	0	0	0	0	501	516
7	0	0	0	0	487	511
8	0	0	0	0	473	512
9	0	0	0	0	481	514
10	0	0	0	0	495	505
11	0	0	0	0	515	496
12	0	0	0	0	526	491
13	0	0	0	0	536	490
14	0	0	0	0	544	491
15	0	0	0	0	539	495
0	0	0	0	0	524	504
1	0	0	0	0	505	512
2	0	0	0	0	499	515
3	0	0	0	0	502	514
4	0	0	0	0	504	510
5	0	0	0	0	507	505
6	0	0	0	0	511	502
7	0	0	0	0	508	502
8	0	0	0	0	502	505
9	0	0	0	0	500	511
10	0	0	0	0	500	515
11	0	0	0	0	497	513
12	0	0	0	0	499	513
13	0	0	0	0	498	511
14	0	0	0	0	500	509
15	0	0	0	0	503	511
0	0	0	0	0	505	509
1	0	0	0	0	509	507
2	0	0	0	0	510	504
3	0	0	0	0	511	505
4	0	0	0	0	508	505
5	0	0	0	0	509	504
6	0	0	0	0	508	503
7	0	0	0	0	511	511
8	0	0	0	0	510	516
9	0	0	0	0	507	519
10	0	0	0	0	504	515
11	0	0	0	0	504	509
12	0	0	0	0	503	503
13	0	0	0	0	503	497
14	0	0	0	0	504	497
15	0	0	0	0	504	504
0	0	0	0	0	507	508
1	0	0	0	0	509	509
2	0	0	0	0	508	508
3	0	0	0	0	508	505
4	0	0	0	0	508	503
5	0	0	0	0	508	505
6	0	0	0	0	510	507
7	0	0	0	0	508	505
8	0	0	0	0	508	500
9	0	0	0	0	507	499
10	0	0	0	0	505	497
11	0	0	0	0	505	499
12	0	0	0	0	505	502
13	0	0	0	0	504	505
14	0	0	0	0	506	506
15	0	0	0	0	506	513
0	0	0	0	0	505	513
1	0	0	0	0	505	514
2	0	0	0	0	504	511
3	0	0	0	0	505	513
4	0	0	0	0	505	511
5	0	0	0	0	505	510
6	0	0	0	0	511	508
7	0	0	0	0	510	508
8	0	0	0	0	506	508
9	0	0	0	0	510	510
10	0	0	0	0	509	510
11	0	0	0	0	510	509
12	0	0	0	0	510	508
13	0	0	0	0	510	510
14	0	0	0	0	508	511
15	0	0	0	0	509	517
0	0	0	0	0	507	516
1	0	0	0	0	506	510
2	0	0	0	0	505	505
3	0	0	0	0	506	506
4	0	0	0	0	505	504
5	0	0	0	0	508	501
6	0	0	0	0	507	499
7	0	0	0	0	507	498
8	0	0	0	0	507	498
9	0	0	0	0	506	499
10	0	0	0	0	502	496
11	0	0	0	0	500	502
12	0	0	0	0	499	505
13	0	0	0	0	500	504
14	0	0	0	0	502	508
15	0	0	0	0	501	508
0	0	0	0	0	504	510
1	0	0	0	0	509	514
2	0	0	0	0	514	519
3	0	0	0	0	516	519
4	0	0	0	0	512	512
5	0	0	0	0	509	507
6	0	0	0	0	512	502
7	0	0	0	0	516	496
8	0	0	0	0	511	496
9	0	0	0	0	510	498
10	0	0	0	0	511	502
11	0	0	0	0	512	508
12	0	0	0	0	511	510
13	0	0	0	0	505	513
14	0	0	0	0	501	513
15	0	0	0	0	496	511
0	0	0	0	0	498	512
1	0	0	0	0	499	517
2	0	0	0	0	503	517
3	0	0	0	0	508	510
4	0	0	0	0	513	508
5	0	0	0	0	515	508
6	0	0	0	0	518	509
7	0	0	0	0	518	507
8	0	0	0	0	512	504
9	0	0	0	0	511	505
10	0	0	0	0	507	502
11	0	0	0	0	504	499
12	0	0	0	0	502	504
13	0	0	0	0	503	517
14	0	0	0	0	501	520
15	0	0	0	0	502	523
0	0	0	0	0	503	512
1	0	0	0	0	503	500
2	0	0	0	0	505	489
3	0	0	0	0	505	482
4	0	0	0	0	505	482
5	0	0	0	0	504	485
6	0	0	0	0	505	492
7	0	0	0	0	505	499
8	0	0	0	0	507	508
9	0	0	0	0	504	511
10	0	0	0	0	506	517
11	0	0	0	0	505	515
12	0	0	0	0	508	518
13	0	0	0	0	508	517
14	0	0	0	0	507	519
15	0	0	0	0	507	524
0	0	0	0	0	509	522
1	0	0	0	0	511	517
2	0	0	0	0	508	512
3	0	0	0	0	507	504
4	0	0	0	0	504	501
5	0	0	0	0	503	494
6	0	0	0	0	505	491
7	0	0	0	0	506	494
8	0	0	0	0	505	500
9	0	0	0	0	507	502
10	0	0	0	0	507	506
11	0	0	0	0	505	508
12	0	0	0	0	503	508
13	0	0	0	0	500	511
14	0	0	0	0	504	510
15	0	0	0	0	506	510
0	0	0	0	0	508	511
1	0	0	0	0	507	510
2	0	0	0	0	513	510
3	0	0	0	0	517	510
4	0	0	0	0	514	510
5	0	0	0	0	509	509
6	0	0	0	0	507	507
7	0	0	0	0	508	508
8	0	0	0	0	504	505
9	0	0	0	0	505	507
10	0	0	0	0	506	508
11	0	0	0	0	508	509
12	0	0	0	0	506	506
13	0	0	0	0	510	507
14	0	0	0	0	508	508
15	0	0	0	0	509	505
0	0	0	0	0	510	508
1	0	0	0	0	507	506
2	0	0	0	0	508	505
3	0	0	0	0	506	506
4	0	0	0	0	502	511
5	0	0	0	0	490	512
6	0	0	0	0	487	519
7	0	0	0	0	492	513
8	0	0	0	0	501	511
9	0	0	0	0	514	504
10	0	0	0	0	520	498
11	0	0	0	0	521	498
12	0	0	0	0	527	504
13	0	0	0	0	527	508
14	0	0	0	0	516	510
15	0	0	0	0	506	508
0	0	0	0	0	502	502
1	0	0	0	0	501	500
2	0	0	0	0	502	496
3	0	0	0	0	504	500
4	0	0	0	0	503	505
5	0	0	0	0	504	513
6	0	0	0	0	504	517
7	0	0	0	0	501	516
8	0	0	0	0	506	511
9	0	0	0	0	507	511
10	0	0	0	0	509	512
11	0	0	0	0	511	505
12	0	0	0	0	510	499
13	0	0	0	0	511	497
14	0	0	0	0	508	504
15	0	0	0	0	503	507
0	0	0	0	0	502	512
1	0	0	0	0	504	517
2	0	0	0	0	503	517
3	0	0	0	0	500	511
4	0	0	0	0	501	500
5	0	0	0	0	507	489
6	0	0	0	0	508	487
7	0	0	0	0	508	490
8	0	0	0	0	511	494
9	0	0	0	0	513	500
10	0	0	0	0	513	509
11	0	0	0	0	510	517
12	0	0	0	0	511	518
13	0	0	0	0	508	514
14	0	0	0	0	507	510
15	0	0	0	0	506	505
0	0	0	0	0	506	504
1	0	0	0	0	505	505
2	0	0	0	0	505	507
3	0	0	0	0	506	510
4	0	0	0	0	504	508
5	0	0	0	0	505	512
6	0	0	0	0	505	523
7	0	0	0	0	508	524
8	0	0	0	0	507	517
9	0	0	0	0	507	508
10	0	0	0	0	508	502
11	0	0	0	0	506	496
12	0	0	0	0	505	489
13	0	0	0	0	505	489
14	0	0	0	0	505	496
15	0	0	0	0	508	504
0	0	0	0	0	506	511
1	0	0	0	0	508	513
2	0	0	0	0	508	512
3	0	0	0	0	508	512
4	0	0	0	0	508	510
5	0	0	0	0	506	512
6	0	0	0	0	507	512
7	0	0	0	0	506	509
8	0	0	0	0	506	509
9	0	0	0	0	505	507
10	0	0	0	0	504	508
11	0	0	0	0	504	508
12	0	0	0	0	507	508
13	0	0	0	0	507	508
14	0	0	0	0	508	507
15	0	0	0	0	507	508
0	0	0	0	0	506	508
1	0	0	0	0	505	504
2	0	0	0	0	505	504
3	0	0	0	0	504	503
4	0	0	0	0	504	502
5	0	0	0	0	506	501
6	0	0	0	0	509	502
7	0	0	0	0	511	508
8	0	0	0	0	511	510
9	0	0	0	0	511	508
10	0	0	0	0	511	508
11	0	0	0	0	511	508
12	0	0	0	0	509	509
13	0	0	0	0	508	508
14	0	0	0	0	506	509
15	0	0	0	0	508	511
0	0	0	0	0	507	512
1	0	0	0	0	508	517
2	0	0	0	0	504	514
3	0	0	0	0	504	505
4	0	0	0	0	505	500
5	0	0	0	0	506	503
6	0	0	0	0	503	501
7	0	0	0	0	497	500
8	0	0	0	0	496	498
9	0	0	0	0	497	502
10	0	0	0	0	500	507
11	0	0	0	0	503	505
12	0	0	0	0	508	509
13	0	0	0	0	509	513
14	0	0	0	0	513	516
15	0	0	0	0	515	511
0	0	0	0	0	516	510
1	0	0	0	0	517	504
2	0	0	0	0	518	503
3	0	0	0	0	515	498
4	0	0	0	0	511	500
5	0	0	0	0	510	511
6	0	0	0	0	508	512
7	0	0	0	0	507	510
8	0	0	0	0	506	507
9	0	0	0	0	506	505
10	0	0	0	0	503	502
11	0	0	0	0	505	503
12	0	0	0	0	504	512
13	0	0	0	0	504	519
14	0	0	0	0	505	518
15	0	0	0	0	507	511
0	0	0	0	0	504	503
1	0	0	0	0	503	497
2	0	0	0	0	505	494
3	0	0	0	0	505	494
4	0	0	0	0	508	496
5	0	0	0	0	512	504
6	0	0	0	0	512	508
7	0	0	0	0	511	511
8	0	0	0	0	510	515
9	0	0	0	0	510	513
10	0	0	0	0	508	511
11	0	0	0	0	509	505
12	0	0	0	0	508	504
13	0	0	0	0	508	507
14	0	0	0	0	508	505
15	0	0	0	0	506	507
0	0	0	0	0	508	510
1	0	0	0	0	505	508
2	0	0	0	0	502	508
3	0	0	0	0	503	507
4	0	0	0	0	503	509
5	0	0	0	0	504	507
6	0	0	0	0	503	507
7	0	0	0	0	500	507
8	0	0	0	0	499	506
9	0	0	0	0	502	506
10	0	0	0	0	504	508
11	0	0	0	0	505	509
12	0	0	0	0	510	510
13	0	0	0	0	508	508
14	0	0	0	0	508	509
15	0	0	0	0	509	508
0	0	0	0	0	505	507
1	0	0	0	0	505	510
2	0	0	0	0	504	514
3	0	0	0	0	503	508
4	0	0	0	0	504	504
5	0	0	0	0	507	502
6	0	0	0	0	508	500
7	0	0	0	0	505	501
8	0	0	0	0	500	504
9	0	0	0	0	500	508
10	0	0	0	0	501	513
11	0	0	0	0	507	519
12	0	0	0	0	509	511
13	0	0	0	0	512	497
14	0	0	0	0	512	490
15	0	0	0	0	514	489
0	0	0	0	0	511	492
1	0	0	0	0	512	499
2	0	0	0	0	512	507
3	0	0	0	0	512	516
4	0	0	0	0	511	524
5	0	0	0	0	512	527
6	0	0	0	0	508	518
7	0	0	0	0	503	509
8	0	0	0	0	502	504
9	0	0	0	0	504	504
10	0	0	0	0	502	505
11	0	0	0	0	503	506
12	0	0	0	0	506	506
13	0	0	0	0	506	504
14	0	0	0	0	509	502
15	0	0	0	0	514	505
0	0	0	0	0	516	503
1	0	0	0	0	518	504
2	0	0	0	0	515	507
3	0	0	0	0	512	511
4	0	0	0	0	510	515
5	0	0	0	0	508	512
6	0	0	0	0	507	511
7	0	0	0	0	506	508
8	0	0	0	0	509	507
9	0	0	0	0	508	507
10	0	0	0	0	506	503
11	0	0	0	0	496	505
12	0	0	0	0	495	506
13	0	0	0	0	497	509
14	0	0	0	0	501	513
15	0	0	0	0	504	512
0	0	0	0	0	508	508
1	0	0	0	0	509	506
2	0	0	0	0	515	500
3	0	0	0	0	519	503
4	0	0	0	0	515	501
5	0	0	0	0	507	505
6	0	0	0	0	502	504
7	0	0	0	0	499	509
8	0	0	0	0	502	512
9	0	0	0	0	504	512
10	0	0	0	0	504	511
11	0	0	0	0	503	509
12	0	0	0	0	503	505
13	0	0	0	0	502	503
14	0	0	0	0	504	500
15	0	0	0	0	504	500
0	0	0	0	0	504	498
1	0	0	0	0	507	499
2	0	0	0	0	508	505
3	0	0	0	0	509	508
4	0	0	0	0	511	509
5	0	0	0	0	511	511
6	0	0	0	0	511	507
7	0	0	0	0	503	508
8	0	0	0	0	497	508
9	0	0	0	0	497	511
10	0	0	0	0	497	513
11	0	0	0	0	497	511
12	0	0	0	0	501	509
13	0	0	0	0	505	506
14	0	0	0	0	512	503
15	0	0	0	0	514	502
0	0	0	0	0	522	504
1	0	0	0	0	524	508
2	0	0	0	0	526	507
3	0	0	0	0	513	509
4	0	0	0	0	502	508
5	0	0	0	0	502	521
6	0	0	0	0	500	528
7	0	0	0	0	499	521
8	0	0	0	0	502	517
9	0	0	0	0	504	503
10	0	0	0	0	510	491
11	0	0	0	0	518	486
12	0	0	0	0	523	481
13	0	0	0	0	524	481
14	0	0	0	0	519	492
15	0	0	0	0	513	497
0	0	0	0	0	511	503
1	0	0	0	0	509	504
2	0	0	0	0	502	505
3	0	0	0	0	504	511
4	0	0	0	0	499	511
5	0	0	0	0	501	514
6	0	0	0	0	499	513
7	0	0	0	0	497	515
8	0	0	0	0	497	515
9	0	0	0	0	499	516
10	0	0	0	0	497	518
11	0	0	0	0	500	516
12	0	0	0	0	501	514
13	0	0	0	0	503	508
14	0	0	0	0	507	505
15	0	0	0	0	505	502
0	0	0	0	0	505	501
1	0	0	0	0	508	503
2	0	0	0	0	508	508
3	0	0	0	0	507	507
4	0	0	0	0	508	507
5	0	0	0	0	506	508
6	0	0	0	0	505	511
7	0	0	0	0	504	515
8	0	0	0	0	505	515
9	0	0	0	0	505	508
10	0	0	0	0	507	505
11	0	0	0	0	505	503
12	0	0	0	0	506	508
13	0	0	0	0	504	503
14	0	0	0	0	504	501
15	0	0	0	0	506	500
0	0	0	0	0	507	503
1	0	0	0	0	505	504
2	0	0	0	0	503	504
3	0	0	0	0	506	502
4	0	0	0	0	508	502
5	0	0	0	0	509	504
6	0	0	0	0	514	511
7	0	0	0	0	515	512
8	0	0	0	0	517	515
9	0	0	0	0	512	515
10	0	0	0	0	509	517
11	0	0	0	0	508	516
12	0	0	0	0	508	508
13	0	0	0	0	509	504
14	0	0	0	0	510	498
15	0	0	0	0	507	499
0	0	0	0	0	505	499
1	0	0	0	0	509	503
2	0	0	0	0	506	505
3	0	0	0	0	504	505
4	0	0	0	0	505	506
5	0	0	0	0	507	509
6	0	0	0	0	507	508
7	0	0	0	0	507	515
8	0	0	0	0	508	512
9	0	0	0	0	508	515
10	0	0	0	0	510	517
11	0	0	0	0	506	514
12	0	0	0	0	506	506
13	0	0	0	0	505	497
14	0	0	0	0	504	488
15	0	0	0	0	505	488
0	0	0	0	0	505	493
1	0	0	0	0	507	495
2	0	0	0	0	505	503
3	0	0	0	0	511	509
4	0	0	0	0	513	511
5	0	0	0	0	513	513
6	0	0	0	0	511	513
7	0	0	0	0	509	513
8	0	0	0	0	505	512
9	0	0	0	0	504	515
10	0	0	0	0	503	514
11	0	0	0	0	502	514
12	0	0	0	0	500	512
13	0	0	0	0	499	508
14	0	0	0	0	501	507
15	0	0	0	0	505	515
0	0	0	0	0	510	515
1	0	0	0	0	512	510
2	0	0	0	0	517	501
3	0	0	0	0	522	495
4	0	0	0	0	523	494
5	0	0	0	0	524	494
6	0	0	0	0	519	496
7	0	0	0	0	511	504
8	0	0	0	0	512	507
9	0	0	0	0	507	510
10	0	0	0	0	502	511
11	0	0	0	0	505	511
12	0	0	0	0	504	510
13	0	0	0	0	502	516
14	0	0	0	0	499	520
15	0	0	0	0	500	520
0	0	0	0	0	502	518
1	0	0	0	0	503	510
2	0	0	0	0	497	507
3	0	0	0	0	499	503
4	0	0	0	0	502	496
5	0	0	0	0	500	494
6	0	0	0	0	503	493
7	0	0	0	0	508	496
8	0	0	0	0	511	500
9	0	0	0	0	513	503
10	0	0	0	0	515	504
11	0	0	0	0	512	505
12	0	0	0	0	507	507
13	0	0	0	0	507	512
14	0	0	0	0	505	511
15	0	0	0	0	506	511
0	0	0	0	0	504	513
1	0	0	0	0	505	512
2	0	0	0	0	505	510
3	0	0	0	0	503	508
4	0	0	0	0	503	508
5	0	0	0	0	504	507
6	0	0	0	0	506	507
7	0	0	0	0	504	505
8	0	0	0	0	506	508
9	0	0	0	0	508	513
10	0	0	0	0	505	519
11	0	0	0	0	505	517
12	0	0	0	0	504	510
13	0	0	0	0	504	504
14	0	0	0	0	506	498
15	0	0	0	0	504	496
0	0	0	0	0	506	491
1	0	0	0	0	507	492
2	0	0	0	0	510	496
3	0	0	0	0	512	504
4	0	0	0	0	516	512
5	0	0	0	0	513	513
6	0	0	0	0	509	511
7	0	0	0	0	510	511
8	0	0	0	0	504	509
9	0	0	0	0	504	510
10	0	0	0	0	502	508
11	0	0	0	0	502	508
12	0	0	0	0	506	509
13	0	0	0	0	505	510
14	0	0	0	0	506	509
15	0	0	0	0	511	511
0	0	0	0	0	511	516
1	0	0	0	0	510	531
2	0	0	0	0	512	528
3	0	0	0	0	510	515
4	0	0	0	0	511	498
5	0	0	0	0	508	489
6	0	0	0	0	503	483
7	0	0	0	0	501	480
8	0	0	0	0	497	482
9	0	0	0	0	497	490
10	0	0	0	0	499	504
11	0	0	0	0	504	510
12	0	0	0	0	505	514
13	0	0	0	0	505	514
14	0	0	0	0	508	515
15	0	0	0	0	511	513
0	0	0	0	0	513	510
1	0	0	0	0	516	508
2	0	0	0	0	510	510
3	0	0	0	0	506	505
4	0	0	0	0	505	508
5	0	0	0	0	505	512
6	0	0	0	0	505	514
7	0	0	0	0	503	512
8	0	0	0	0	504	511
9	0	0	0	0	503	509
10	0	0	0	0	503	505
11	0	0	0	0	503	501
12	0	0	0	0	503	501
13	0	0	0	0	502	505
14	0	0	0	0	500	511
15	0	0	0	0	497	511
0	0	0	0	0	492	512
1	0	0	0	0	493	511
2	0	0	0	0	497	510
3	0	0	0	0	498	504
4	0	0	0	0	504	502
5	0	0	0	0	510	503
6	0	0	0	0	518	504
7	0	0	0	0	525	512
8	0	0	0	0	521	518
9	0	0	0	0	527	515
10	0	0	0	0	524	511
11	0	0	0	0	517	502
12	0	0	0	0	514	497
13	0	0	0	0	510	500
14	0	0	0	0	505	503
15	0	0	0	0	500	507
0	0	0	0	0	496	514
1	0	0	0	0	494	511
2	0	0	0	0	495	501
3	0	0	0	0	497	494
4	0	0	0	0	501	489
5	0	0	0	0	504	489
6	0	0	0	0	508	492
7	0	0	0	0	512	501
8	0	0	0	0	515	513
9	0	0	0	0	518	518
10	0	0	0	0	518	516
11	0	0	0	0	509	515
12	0	0	0	0	504	511
13	0	0	0	0	503	509
14	0	0	0	0	501	508
15	0	0	0	0	502	508
0	0	0	0	0	503	508
1	0	0	0	0	504	509
2	0	0	0	0	506	511
3	0	0	0	0	508	508
4	0	0	0	0	507	508
5	0	0	0	0	508	507
6	0	0	0	0	507	509
7	0	0	0	0	508	509
8	0	0	0	0	509	508
9	0	0	0	0	512	512
10	0	0	0	0	512	516
11	0	0	0	0	512	511
12	0	0	0	0	512	508
13	0	0	0	0	509	505
14	0	0	0	0	506	502
15	0	0	0	0	504	501
0	0	0	0	0	503	497
1	0	0	0	0	504	496
2	0	0	0	0	506	501
3	0	0	0	0	504	507
4	0	0	0	0	505	508
5	0	0	0	0	505	510
6	0	0	0	0	505	509
7	0	0	0	0	506	509
8	0	0	0	0	506	509
9	0	0	0	0	504	511
10	0	0	0	0	506	511
11	0	0	0	0	505	511
12	0	0	0	0	503	509
13	0	0	0	0	503	508
14	0	0	0	0	504	508
15	0	0	0	0	502	505
0	0	0	0	0	500	505
1	0	0	0	0	502	507
2	0	0	0	0	500	505
3	0	0	0	0	504	503
4	0	0	0	0	503	506
5	0	0	0	0	506	508
6	0	0	0	0	511	510
7	0	0	0	0	513	513
8	0	0	0	0	514	510
9	0	0	0	0	517	507
10	0	0	0	0	521	504
11	0	0	0	0	524	502
12	0	0	0	0	523	500
13	0	0	0	0	518	502
14	0	0	0	0	514	508
15	0	0	0	0	508	511
0	0	0	0	0	503	510
1	0	0	0	0	501	504
2	0	0	0	0	497	504
3	0	0	0	0	499	503
4	0	0	0	0	500	501
5	0	0	0	0	498	500
6	0	0	0	0	499	505
7	0	0	0	0	499	511
8	0	0	0	0	502	516
9	0	0	0	0	505	516
10	0	0	0	0	510	511
11	0	0	0	0	514	509
12	0	0	0	0	515	512
13	0	0	0	0	512	507
14	0	0	0	0	512	502
15	0	0	0	0	508	497
0	0	0	0	0	509	504
1	0	0	0	0	506	511
2	0	0	0	0	505	511
3	0	0	0	0	508	504
4	0	0	0	0	505	497
5	0	0	0	0	503	493
6	0	0	0	0	505	491
7	0	0	0	0	504	491
8	0	0	0	0	504	496
9	0	0	0	0	503	503
10	0	0	0	0	502	511
11	0	0	0	0	505	515
12	0	0	0	0	505	515
13	0	0	0	0	505	517
14	0	0	0	0	507	518
15	0	0	0	0	508	513
0	0	0	0	0	507	512
1	0	0	0	0	505	509
2	0	0	0	0	509	508
3	0	0	0	0	507	514
4	0	0	0	0	508	515
5	0	0	0	0	507	515
6	0	0	0	0	505	510
7	0	0	0	0	505	508
8	0	0	0	0	507	504
9	0	0	0	0	506	497
10	0	0	0	0	505	495
11	0	0	0	0	505	493
12	0	0	0	0	505	496
13	0	0	0	0	506	507
14	0	0	0	0	508	511
15	0	0	0	0	504	512
0	0	0	0	0	503	511
1	0	0	0	0	501	508
2	0	0	0	0	503	506
3	0	0	0	0	506	507
4	0	0	0	0	506	507
5	0	0	0	0	509	512
6	0	0	0	0	512	519
7	0	0	0	0	516	516
8	0	0	0	0	515	515
9	0	0	0	0	518	508
10	0	0	0	0	519	504
11	0	0	0	0	519	503
12	0	0	0	0	520	495
13	0	0	0	0	515	498
14	0	0	0	0	510	499
15	0	0	0	0	506	502
0	0	0	0	0	505	504
1	0	0	0	0	507	507
2	0	0	0	0	506	508
3	0	0	0	0	506	507
4	0	0	0	0	505	510
5	0	0	0	0	501	506
6	0	0	0	0	505	509
7	0	0	0	0	505	517
8	0	0	0	0	506	519
9	0	0	0	0	504	512
10	0	0	0	0	504	504
11	0	0	0	0	507	500
12	0	0	0	0	503	495
13	0	0	0	0	503	491
14	0	0	0	0	505	495
15	0	0	0	0	504	499
0	0	0	0	0	507	504
1	0	0	0	0	505	512
2	0	0	0	0	508	514
3	0	0	0	0	504	512
4	0	0	0	0	505	513
5	0	0	0	0	505	509
6	0	0	0	0	505	510
7	0	0	0	0	507	508
8	0	0	0	0	509	505
9	0	0	0	0	509	506
10	0	0	0	0	506	510
11	0	0	0	0	508	512
12	0	0	0	0	510	513
13	0	0	0	0	508	515
14	0	0	0	0	508	512
15	0	0	0	0	509	510
0	0	0	0	0	506	505
1	0	0	0	0	506	503
2	0	0	0	0	508	502
3	0	0	0	0	506	498
4	0	0	0	0	506	499
5	0	0	0	0	507	500
6	0	0	0	0	507	503
7	0	0	0	0	505	504
8	0	0	0	0	508	507
9	0	0	0	0	506	513
10	0	0	0	0	505	513
11	0	0	0	0	505	512
12	0	0	0	0	505	512
13	0	0	0	0	506	512
14	0	0	0	0	508	515
15	0	0	0	0	508	514
0	0	0	0	0	505	511
1	0	0	0	0	504	508
2	0	0	0	0	505	510
3	0	0	0	0	509	510
4	0	0	0	0	511	503
5	0	0	0	0	512	492
6	0	0	0	0	511	491
7	0	0	0	0	511	492
8	0	0	0	0	507	497
9	0	0	0	0	503	499
10	0	0	0	0	501	504
11	0	0	0	0	501	509
12	0	0	0	0	503	511
13	0	0	0	0	502	511
14	0	0	0	0	503	512
15	0	0	0	0	505	513
0	0	0	0	0	509	513
1	0	0	0	0	516	511
2	0	0	0	0	513	510
3	0	0	0	0	516	510
4	0	0	0	0	518	509
5	0	0	0	0	515	506
6	0	0	0	0	513	508
7	0	0	0	0	510	511
8	0	0	0	0	509	512
9	0	0	0	0	508	510
10	0	0	0	0	504	510
11	0	0	0	0	503	510
12	0	0	0	0	505	508
13	0	0	0	0	503	506
14	0	0	0	0	505	504
15	0	0	0	0	505	506
0	0	0	0	0	503	507
1	0	0	0	0	504	503
2	0	0	0	0	504	496
3	0	0	0	0	505	495
4	0	0	0	0	505	496
5	0	0	0	0	505	496
6	0	0	0	0	505	496
7	0	0	0	0	504	503
8	0	0	0	0	508	511
9	0	0	0	0	506	516
10	0	0	0	0	507	514
11	0	0	0	0	507	514
12	0	0	0	0	507	514
13	0	0	0	0	508	512
14	0	0	0	0	506	518
15	0	0	0	0	504	515
0	0	0	0	0	506	516
1	0	0	0	0	508	510
2	0	0	0	0	507	505
3	0	0	0	0	507	499
4	0	0	0	0	508	494
5	0	0	0	0	507	490
6	0	0	0	0	508	498
7	0	0	0	0	508	500
8	0	0	0	0	508	504
9	0	0	0	0	508	512
10	0	0	0	0	507	513
11	0	0	0	0	505	511
12	0	0	0	0	506	511
13	0	0	0	0	508	511
14	0	0	0	0	507	511
15	0	0	0	0	507	513
0	0	0	0	0	508	514
1	0	0	0	0	507	513
2	0	0	0	0	505	511
3	0	0	0	0	508	508
4	0	0	0	0	505	502
5	0	0	0	0	507	499
6	0	0	0	0	503	502
7	0	0	0	0	507	506
8	0	0	0	0	508	511
9	0	0	0	0	509	512
10	0	0	0	0	508	509
11	0	0	0	0	507	505
12	0	0	0	0	505	500
13	0	0	0	0	504	500
14	0	0	0	0	507	503
15	0	0	0	0	504	506
0	0	0	0	0	504	504
1	0	0	0	0	506	504
2	0	0	0	0	507	505
3	0	0	0	0	506	505
4	0	0	0	0	509	504
5	0	0	0	0	515	505
6	0	0	0	0	518	509
7	0	0	0	0	516	509
8	0	0	0	0	512	507
9	0	0	0	0	510	508
10	0	0	0	0	505	508
11	0	0	0	0	504	507
12	0	0	0	0	505	506
13	0	0	0	0	505	507
14	0	0	0	0	505	507
15	0	0	0	0	504	513
0	0	0	0	0	505	526
1	0	0	0	0	508	534
2	0	0	0	0	508	528
3	0	0	0	0	504	512
4	0	0	0	0	502	497
5	0	0	0	0	503	486
6	0	0	0	0	504	474
7	0	0	0	0	505	473
8	0	0	0	0	508	482
9	0	0	0	0	510	504
10	0	0	0	0	511	512
11	0	0	0	0	513	515
12	0	0	0	0	512	511
13	0	0	0	0	509	508
14	0	0	0	0	511	510
15	0	0	0	0	508	515
0	0	0	0	0	505	517
1	0	0	0	0	506	520
2	0	0	0	0	505	518
3	0	0	0	0	507	508
4	0	0	0	0	508	501
5	0	0	0	0	504	495
6	0	0	0	0	505	491
7	0	0	0	0	504	496
8	0	0	0	0	505	498
9	0	0	0	0	506	505
10	0	0	0	0	506	510
11	0	0	0	0	506	512
12	0	0	0	0	506	511
13	0	0	0	0	507	512
14	0	0	0	0	507	512
15	0	0	0	0	509	511
0	0	0	0	0	508	510
1	0	0	0	0	504	510
2	0	0	0	0	508	512
3	0	0	0	0	507	512
4	0	0	0	0	507	517
5	0	0	0	0	507	515
6	0	0	0	0	507	512
7	0	0	0	0	508	517
8	0	0	0	0	508	527
9	0	0	0	0	508	525
10	0	0	0	0	507	511
11	0	0	0	0	508	498
12	0	0	0	0	506	488
13	0	0	0	0	508	484
14	0	0	0	0	507	477
15	0	0	0	0	508	478
0	0	0	0	0	507	489
1	0	0	0	0	507	499
2	0	0	0	0	505	507
3	0	0	0	0	505	511
4	0	0	0	0	508	510
5	0	0	0	0	505	514
6	0	0	0	0	509	512
7	0	0	0	0	506	511
8	0	0	0	0	508	511
9	0	0	0	0	506	511
10	0	0	0	0	504	510
11	0	0	0	0	504	510
12	0	0	0	0	503	509
13	0	0	0	0	502	512
14	0	0	0	0	503	515
15	0	0	0	0	505	514
0	0	0	0	0	506	507
1	0	0	0	0	510	504
2	0	0	0	0	507	504
3	0	0	0	0	513	500
4	0	0	0	0	518	500
5	0	0	0	0	521	504
6	0	0	0	0	521	501
7	0	0	0	0	515	508
8	0	0	0	0	511	512
9	0	0	0	0	510	513
10	0	0	0	0	507	513
11	0	0	0	0	501	513
12	0	0	0	0	500	511
13	0	0	0	0	502	511
14	0	0	0	0	503	511
15	0	0	0	0	503	511
0	0	0	0	0	504	518
1	0	0	0	0	505	532
2	0	0	0	0	505	535
3	0	0	0	0	505	523
4	0	0	0	0	505	511
5	0	0	0	0	505	498
6	0	0	0	0	506	488
7	0	0	0	0	507	482
8	0	0	0	0	510	489
9	0	0	0	0	506	494
10	0	0	0	0	507	500
11	0	0	0	0	508	500
12	0	0	0	0	508	500
13	0	0	0	0	508	500
14	0	0	0	0	508	502
15	0	0	0	0	504	504
0	0	0	0	0	505	506
1	0	0	0	0	503	508
2	0	0	0	0	504	509
3	0	0	0	0	506	505
4	0	0	0	0	507	508
5	0	0	0	0	507	513
6	0	0	0	0	505	515
7	0	0	0	0	508	511
8	0	0	0	0	508	511
9	0	0	0	0	509	511
10	0	0	0	0	507	510
11	0	0	0	0	508	508
12	0	0	0	0	510	504
13	0	0	0	0	510	502
14	0	0	0	0	510	502
15	0	0	0	0	509	501
0	0	0	0	0	508	498
1	0	0	0	0	505	498
2	0	0	0	0	505	503
3	0	0	0	0	503	511
4	0	0	0	0	502	518
5	0	0	0	0	504	515
6	0	0	0	0	502	513
7	0	0	0	0	505	507
8	0	0	0	0	508	502
9	0	0	0	0	508	502
10	0	0	0	0	510	499
11	0	0	0	0	508	500
12	0	0	0	0	509	504
13	0	0	0	0	508	507
14	0	0	0	0	510	511
15	0	0	0	0	508	516
0	0	0	0	0	505	519
1	0	0	0	0	504	514
2	0	0	0	0	505	508
3	0	0	0	0	508	508
4	0	0	0	0	511	505
5	0	0	0	0	507	504
6	0	0	0	0	504	505
7	0	0	0	0	505	510
8	0	0	0	0	508	510
9	0	0	0	0	506	507
10	0	0	0	0	506	504
11	0	0	0	0	507	506
12	0	0	0	0	504	509
13	0	0	0	0	508	508
14	0	0	0	0	506	504
15	0	0	0	0	508	499
0	0	0	0	0	506	497
1	0	0	0	0	507	496
2	0	0	0	0	509	499
3	0	0	0	0	507	499
4	0	0	0	0	504	504
5	0	0	0	0	507	508
6	0	0	0	0	507	510
7	0	0	0	0	508	511
8	0	0	0	0	511	513
9	0	0	0	0	510	515
10	0	0	0	0	510	511
11	0	0	0	0	510	510
12	0	0	0	0	511	511
13	0	0	0	0	507	512
14	0	0	0	0	508	511
15	0	0	0	0	508	511
0	0	0	0	0	507	512
1	0	0	0	0	506	508
2	0	0	0	0	510	508
3	0	0	0	0	508	505
4	0	0	0	0	507	503
5	0	0	0	0	506	501
6	0	0	0	0	507	502
7	0	0	0	0	505	509
8	0	0	0	0	507	512
9	0	0	0	0	505	510
10	0	0	0	0	504	509
11	0	0	0	0	505	508
12	0	0	0	0	505	511
13	0	0	0	0	504	504
14	0	0	0	0	506	498
15	0	0	0	0	508	495
0	0	0	0	0	506	496
1	0	0	0	0	507	500
2	0	0	0	0	505	504
3	0	0	0	0	508	506
4	0	0	0	0	508	509
5	0	0	0	0	505	510
6	0	0	0	0	508	508
7	0	0	0	0	508	510
8	0	0	0	0	508	515
9	0	0	0	0	505	519
10	0	0	0	0	505	522
11	0	0	0	0	507	521
12	0	0	0	0	506	514
13	0	0	0	0	508	504
14	0	0	0	0	508	494
15	0	0	0	0	507	493
0	0	0	0	0	507	497
1	0	0	0	0	505	505
2	0	0	0	0	507	507
3	0	0	0	0	505	505
4	0	0	0	0	506	501
5	0	0	0	0	506	501
6	0	0	0	0	508	499
7	0	0	0	0	505	497
8	0	0	0	0	505	495
9	0	0	0	0	508	504
10	0	0	0	0	507	511
11	0	0	0	0	505	511
12	0	0	0	0	508	512
13	0	0	0	0	508	514
14	0	0	0	0	509	511
15	0	0	0	0	506	512
0	0	0	0	0	506	513
1	0	0	0	0	507	512
2	0	0	0	0	507	517
3	0	0	0	0	508	526
4	0	0	0	0	508	527
5	0	0	0	0	506	517
6	0	0	0	0	505	504
7	0	0	0	0	506	493
8	0	0	0	0	504	490
9	0	0	0	0	502	497
10	0	0	0	0	502	498
11	0	0	0	0	504	507
12	0	0	0	0	504	512
13	0	0	0	0	508	511
14	0	0	0	0	509	507
15	0	0	0	0	510	502
0	0	0	0	0	511	496
1	0	0	0	0	513	494
2	0	0	0	0	514	492
3	0	0	0	0	515	497
4	0	0	0	0	514	501
5	0	0	0	0	513	501
6	0	0	0	0	509	505
7	0	0	0	0	507	509
8	0	0	0	0	506	512
9	0	0	0	0	506	511
10	0	0	0	0	507	513
11	0	0	0	0	504	513
12	0	0	0	0	504	512
13	0	0	0	0	502	514
14	0	0	0	0	503	513
15	0	0	0	0	504	514
0	0	0	0	0	504	513
1	0	0	0	0	503	512
2	0	0	0	0	505	511
3	0	0	0	0	505	509
4	0	0	0	0	505	503
5	0	0	0	0	505	503
6	0	0	0	0	506	504
7	0	0	0	0	508	508
8	0	0	0	0	508	509
9	0	0	0	0	506	506
10	0	0	0	0	507	507
11	0	0	0	0	508	509
12	0	0	0	0	507	508
13	0	0	0	0	507	500
14	0	0	0	0	507	496
15	0	0	0	0	506	497
0	0	0	0	0	505	506
1	0	0	0	0	507	517
2	0	0	0	0	508	515
3	0	0	0	0	507	510
4	0	0	0	0	507	507
5	0	0	0	0	507	504
6	0	0	0	0	507	502
7	0	0	0	0	507	496
8	0	0	0	0	505	497
9	0	0	0	0	508	499
10	0	0	0	0	510	505
11	0	0	0	0	508	505
12	0	0	0	0	507	506
13	0	0	0	0	506	507
14	0	0	0	0	505	510
15	0	0	0	0	505	512
0	0	0	0	0	503	511
1	0	0	0	0	504	510
2	0	0	0	0	507	508
3	0	0	0	0	509	506
4	0	0	0	0	509	508
5	0	0	0	0	509	509
6	0	0	0	0	507	509
7	0	0	0	0	508	508
8	0	0	0	0	506	509
9	0	0	0	0	506	508
10	0	0	0	0	506	508
11	0	0	0	0	506	509
12	0	0	0	0	509	511
13	0	0	0	0	506	512
14	0	0	0	0	509	514
15	0	0	0	0	508	511
0	0	0	0	0	507	514
1	0	0	0	0	509	510
2	0	0	0	0	508	511
3	0	0	0	0	509	510
4	0	0	0	0	509	514
5	0	0	0	0	504	519
6	0	0	0	0	507	508
7	0	0	0	0	501	498
8	0	0	0	0	501	487
9	0	0	0	0	501	483
10	0	0	0	0	499	484
11	0	0	0	0	502	482
12	0	0	0	0	507	485
13	0	0	0	0	511	495
14	0	0	0	0	513	501
15	0	0	0	0	516	505
0	0	0	0	0	516	509
1	0	0	0	0	517	510
2	0	0	0	0	514	512
3	0	0	0	0	512	511
4	0	0	0	0	512	513
5	0	0	0	0	508	513
6	0	0	0	0	507	512
7	0	0	0	0	504	515
8	0	0	0	0	504	513
9	0	0	0	0	503	514
10	0	0	0	0	506	513
11	0	0	0	0	502	510
12	0	0	0	0	503	512
13	0	0	0	0	504	513
14	0	0	0	0	503	509
15	0	0	0	0	505	511
0	0	0	0	0	505	513
1	0	0	0	0	507	514
2	0	0	0	0	508	512
3	0	0	0	0	506	510
4	0	0	0	0	508	507
5	0	0	0	0	506	506
6	0	0	0	0	508	504
7	0	0	0	0	508	499
8	0	0	0	0	505	499
9	0	0	0	0	509	500
10	0	0	0	0	507	503
11	0	0	0	0	506	508
12	0	0	0	0	507	510
13	0	0	0	0	507	510
14	0	0	0	0	506	513
15	0	0	0	0	506	520
0	0	0	0	0	505	520
1	0	0	0	0	504	510
2	0	0	0	0	508	503
3	0	0	0	0	506	496
4	0	0	0	0	507	492
5	0	0	0	0	507	492
6	0	0	0	0	505	496
7	0	0	0	0	505	501
8	0	0	0	0	506	507
9	0	0	0	0	506	513
10	0	0	0	0	506	516
11	0	0	0	0	507	512
12	0	0	0	0	507	505
13	0	0	0	0	508	502
14	0	0	0	0	508	501
15	0	0	0	0	508	501
0	0	0	0	0	509	506
1	0	0	0	0	508	515
2	0	0	0	0	504	524
3	0	0	0	0	506	523
4	0	0	0	0	507	515
5	0	0	0	0	506	512
6	0	0	0	0	506	511
7	0	0	0	0	508	506
8	0	0	0	0	506	497
9	0	0	0	0	506	491
10	0	0	0	0	508	491
11	0	0	0	0	507	494
12	0	0	0	0	506	496
13	0	0	0	0	508	500
14	0	0	0	0	508	505
15	0	0	0	0	509	512
0	0	0	0	0	507	514
1	0	0	0	0	507	516
2	0	0	0	0	505	517
3	0	0	0	0	506	518
4	0	0	0	0	507	514
5	0	0	0	0	507	508
6	0	0	0	0	507	506
7	0	0	0	0	507	504
8	0	0	0	0	508	501
9	0	0	0	0	507	500
10	0	0	0	0	505	499
11	0	0	0	0	507	503
12	0	0	0	0	507	503
13	0	0	0	0	506	506
14	0	0	0	0	507	507
15	0	0	0	0	505	507
0	0	0	0	0	504	504
1	0	0	0	0	506	509
2	0	0	0	0	508	511
3	0	0	0	0	508	515
4	0	0	0	0	508	517
5	0	0	0	0	506	515
6	0	0	0	0	508	511
7	0	0	0	0	507	505
8	0	0	0	0	507	502
9	0	0	0	0	508	510
10	0	0	0	0	506	512
11	0	0	0	0	507	511
12	0	0	0	0	504	510
13	0	0	0	0	507	507
14	0	0	0	0	508	504
15	0	0	0	0	507	502
0	0	0	0	0	507	497
1	0	0	0	0	507	492
2	0	0	0	0	509	492
3	0	0	0	0	509	496
4	0	0	0	0	508	500
5	0	0	0	0	504	507
6	0	0	0	0	507	510
7	0	0	0	0	506	516
8	0	0	0	0	505	521
9	0	0	0	0	507	527
10	0	0	0	0	504	524
11	0	0	0	0	505	525
12	0	0	0	0	508	519
13	0	0	0	0	509	503
14	0	0	0	0	507	491
15	0	0	0	0	507	481
0	0	0	0	0	509	481
1	0	0	0	0	507	487
2	0	0	0	0	507	496
3	0	0	0	0	506	502
4	0	0	0	0	506	509
5	0	0	0	0	506	511
6	0	0	0	0	508	513
7	0	0	0	0	507	512
8	0	0	0	0	508	511
9	0	0	0	0	509	512
10	0	0	0	0	509	511
11	0	0	0	0	507	513
12	0	0	0	0	507	512
13	0	0	0	0	508	511
14	0	0	0	0	508	511
15	0	0	0	0	508	511
0	0	0	0	0	506	509
1	0	0	0	0	507	510
2	0	0	0	0	504	508
3	0	0	0	0	505	506
4	0	0	0	0	507	509
5	0	0	0	0	506	510
6	0	0	0	0	505	508
7	0	0	0	0	507	508
8	0	0	0	0	509	508
9	0	0	0	0	507	508
10	0	0	0	0	507	508
11	0	0	0	0	505	512
12	0	0	0	0	507	516
13	0	0	0	0	506	527
14	0	0	0	0	505	527
15	0	0	0	0	504	524
0	0	0	0	0	505	515
1	0	0	0	0	506	503
2	0	0	0	0	507	489
3	0	0	0	0	506	478
4	0	0	0	0	506	470
5	0	0	0	0	507	471
6	0	0	0	0	510	478
7	0	0	0	0	508	489
8	0	0	0	0	510	503
9	0	0	0	0	508	511
10	0	0	0	0	507	517
11	0	0	0	0	504	515
12	0	0	0	0	505	517
13	0	0	0	0	504	514
14	0	0	0	0	505	513
15	0	0	0	0	507	511
0	0	0	0	0	509	514
1	0	0	0	0	511	515
2	0	0	0	0	507	511
3	0	0	0	0	507	512
4	0	0	0	0	508	508
5	0	0	0	0	508	509
6	0	0	0	0	507	511
7	0	0	0	0	508	512
8	0	0	0	0	508	505
9	0	0	0	0	508	503
10	0	0	0	0	508	503
11	0	0	0	0	505	504
12	0	0	0	0	505	504
13	0	0	0	0	505	508
14	0	0	0	0	503	509
15	0	0	0	0	505	510
0	0	0	0	0	503	515
1	0	0	0	0	505	515
2	0	0	0	0	503	508
3	0	0	0	0	501	510
4	0	0	0	0	505	512
5	0	0	0	0	504	509
6	0	0	0	0	508	503
7	0	0	0	0	510	493
8	0	0	0	0	511	494
9	0	0	0	0	511	496
10	0	0	0	0	511	498
11	0	0	0	0	511	500
12	0	0	0	0	512	506
13	0	0	0	0	512	508
14	0	0	0	0	508	510
15	0	0	0	0	506	511
0	0	0	0	0	504	511
1	0	0	0	0	506	511
2	0	0	0	0	504	511
3	0	0	0	0	508	510
4	0	0	0	0	506	509
5	0	0	0	0	505	508
6	0	0	0	0	504	508
7	0	0	0	0	505	510
8	0	0	0	0	507	512
9	0	0	0	0	504	510
10	0	0	0	0	505	510
11	0	0	0	0	507	507
12	0	0	0	0	508	504
13	0	0	0	0	508	503
14	0	0	0	0	510	503
15	0	0	0	0	509	505
0	0	0	0	0	511	512
1	0	0	0	0	512	517
2	0	0	0	0	507	515
3	0	0	0	0	508	510
4	0	0	0	0	509	513
5	0	0	0	0	508	513
6	0	0	0	0	506	515
7	0	0	0	0	507	508
8	0	0	0	0	507	502
9	0	0	0	0	505	500
10	0	0	0	0	505	502
11	0	0	0	0	504	502
12	0	0	0	0	504	496
13	0	0	0	0	506	493
14	0	0	0	0	507	488
15	0	0	0	0	508	495
0	0	0	0	0	506	501
1	0	0	0	0	505	501
2	0	0	0	0	507	501
3	0	0	0	0	505	505
4	0	0	0	0	500	510
5	0	0	0	0	502	510
6	0	0	0	0	503	509
7	0	0	0	0	500	509
8	0	0	0	0	499	512
9	0	0	0	0	494	509
10	0	0	0	0	496	509
11	0	0	0	0	503	507
12	0	0	0	0	508	507
13	0	0	0	0	519	511
14	0	0	0	0	523	512
15	0	0	0	0	525	512
0	0	0	0	0	524	514
1	0	0	0	0	520	513
2	0	0	0	0	516	514
3	0	0	0	0	515	518
4	0	0	0	0	510	519
5	0	0	0	0	507	515
6	0	0	0	0	504	511
7	0	0	0	0	504	504
8	0	0	0	0	504	501
9	0	0	0	0	504	497
10	0	0	0	0	505	494
11	0	0	0	0	503	494
12	0	0	0	0	503	499
13	0	0	0	0	501	504
14	0	0	0	0	503	509
15	0	0	0	0	504	509
0	0	0	0	0	503	511
1	0	0	0	0	504	509
2	0	0	0	0	505	509
3	0	0	0	0	507	503
4	0	0	0	0	506	504
5	0	0	0	0	506	508
6	0	0	0	0	508	511
7	0	0	0	0	506	510
8	0	0	0	0	508	508
9	0	0	0	0	507	508
10	0	0	0	0	507	504
11	0	0	0	0	507	503
12	0	0	0	0	508	501
13	0	0	0	0	504	507
14	0	0	0	0	505	508
15	0	0	0	0	504	508
0	0	0	0	0	504	507
1	0	0	0	0	504	509
2	0	0	0	0	508	510
3	0	0	0	0	507	514
4	0	0	0	0	508	512
5	0	0	0	0	507	511
6	0	0	0	0	506	508
7	0	0	0	0	508	505
8	0	0	0	0	508	504
9	0	0	0	0	507	501
10	0	0	0	0	505	505
11	0	0	0	0	507	507
12	0	0	0	0	505	509
13	0	0	0	0	504	512
14	0	0	0	0	505	509
15	0	0	0	0	505	507
0	0	0	0	0	507	506
1	0	0	0	0	509	507
2	0	0	0	0	508	508
3	0	0	0	0	507	503
4	0	0	0	0	507	508
5	0	0	0	0	508	513
6	0	0	0	0	508	516
7	0	0	0	0	507	514
8	0	0	0	0	509	509
9	0	0	0	0	508	503
10	0	0	0	0	509	499
11	0	0	0	0	509	495
12	0	0	0	0	509	494
13	0	0	0	0	508	493
14	0	0	0	0	508	496
15	0	0	0	0	506	498
0	0	0	0	0	506	505
1	0	0	0	0	505	509
2	0	0	0	0	506	518
3	0	0	0	0	506	523
4	0	0	0	0	508	518
5	0	0	0	0	510	511
6	0	0	0	0	509	509
7	0	0	0	0	509	517
8	0	0	0	0	510	531
9	0	0	0	0	506	522
10	0	0	0	0	505	512
11	0	0	0	0	507	499
12	0	0	0	0	507	489
13	0	0	0	0	505	480
14	0	0	0	0	507	477
15	0	0	0	0	505	482
0	0	0	0	0	507	493
1	0	0	0	0	507	504
2	0	0	0	0	505	514
3	0	0	0	0	506	513
4	0	0	0	0	507	515
5	0	0	0	0	506	515
6	0	0	0	0	505	514
7	0	0	0	0	506	514
8	0	0	0	0	508	513
9	0	0	0	0	508	516
10	0	0	0	0	505	514
11	0	0	0	0	507	512
12	0	0	0	0	508	507
13	0	0	0	0	507	507
14	0	0	0	0	507	504
15	0	0	0	0	506	499
0	0	0	0	0	504	504
1	0	0	0	0	507	507
2	0	0	0	0	505	509
3	0	0	0	0	504	507
4	0	0	0	0	508	509
5	0	0	0	0	503	511
6	0	0	0	0	505	510
7	0	0	0	0	507	507
8	0	0	0	0	509	507
9	0	0	0	0	507	506
10	0	0	0	0	507	506
11	0	0	0	0	508	508
12	0	0	0	0	506	505
13	0	0	0	0	508	507
14	0	0	0	0	509	508
15	0	0	0	0	508	507
0	0	0	0	0	508	508
1	0	0	0	0	506	507
2	0	0	0	0	506	506
3	0	0	0	0	504	505
4	0	0	0	0	507	507
5	0	0	0	0	505	508
6	0	0	0	0	505	508
7	0	0	0	0	506	508
8	0	0	0	0	505	507
9	0	0	0	0	504	505
10	0	0	0	0	508	504
11	0	0	0	0	507	508
12	0	0	0	0	508	512
13	0	0	0	0	510	507
14	0	0	0	0	510	505
15	0	0	0	0	510	504
0	0	0	0	0	507	508
1	0	0	0	0	506	506
2	0	0	0	0	508	502
3	0	0	0	0	506	503
4	0	0	0	0	509	504
5	0	0	0	0	508	503
6	0	0	0	0	510	504
7	0	0	0	0	508	504
8	0	0	0	0	512	504
9	0	0	0	0	509	504
10	0	0	0	0	509	505
11	0	0	0	0	508	503
12	0	0	0	0	506	504
13	0	0	0	0	506	508
14	0	0	0	0	504	514
15	0	0	0	0	504	521
0	0	0	0	0	503	520
1	0	0	0	0	507	512
2	0	0	0	0	505	507
3	0	0	0	0	507	496
4	0	0	0	0	505	491
5	0	0	0	0	507	499
6	0	0	0	0	505	512
7	0	0	0	0	504	514
8	0	0	0	0	508	514
9	0	0	0	0	507	512
10	0	0	0	0	497	506
11	0	0	0	0	492	505
12	0	0	0	0	492	507
13	0	0	0	0	494	508
14	0	0	0	0	503	512
15	0	0	0	0	510	511
0	0	0	0	0	516	511
1	0	0	0	0	520	508
2	0	0	0	0	521	509
3	0	0	0	0	521	508
4	0	0	0	0	520	504
5	0	0	0	0	515	502
6	0	0	0	0	511	502
7	0	0	0	0	511	506
8	0	0	0	0	508	505
9	0	0	0	0	507	510
10	0	0	0	0	506	512
11	0	0	0	0	506	515
12	0	0	0	0	504	511
13	0	0	0	0	502	508
14	0	0	0	0	506	506
15	0	0	0	0	507	503
0	0	0	0	0	504	502
1	0	0	0	0	504	499
2	0	0	0	0	505	505
3	0	0	0	0	505	509
4	0	0	0	0	505	508
5	0	0	0	0	507	505
6	0	0	0	0	504	502
7	0	0	0	0	506	498
8	0	0	0	0	505	497
9	0	0	0	0	505	496
10	0	0	0	0	505	499
11	0	0	0	0	504	505
12	0	0	0	0	504	510
13	0	0	0	0	508	511
14	0	0	0	0	505	510
15	0	0	0	0	506	510
0	0	0	0	0	505	510
1	0	0	0	0	508	511
2	0	0	0	0	509	510
3	0	0	0	0	508	511
4	0	0	0	0	509	508
5	0	0	0	0	509	510
6	0	0	0	0	506	509
7	0	0	0	0	506	512
8	0	0	0	0	507	512
9	0	0	0	0	509	510
10	0	0	0	0	509	511
11	0	0	0	0	509	509
12	0	0	0	0	508	505
13	0	0	0	0	507	503
14	0	0	0	0	505	501
15	0	0	0	0	507	504
0	0	0	0	0	505	508
1	0	0	0	0	503	507
2	0	0	0	0	503	502
3	0	0	0	0	503	500
4	0	0	0	0	505	500
5	0	0	0	0	504	504
6	0	0	0	0	506	508
7	0	0	0	0	507	511
8	0	0	0	0	507	514
9	0	0	0	0	511	513
10	0	0	0	0	512	513
11	0	0	0	0	511	511
12	0	0	0	0	510	505
13	0	0	0	0	508	502
14	0	0	0	0	508	500
15	0	0	0	0	508	503
0	0	0	0	0	506	510
1	0	0	0	0	507	510
2	0	0	0	0	506	505
3	0	0	0	0	504	500
4	0	0	0	0	505	500
5	0	0	0	0	508	500
6	0	0	0	0	508	497
7	0	0	0	0	507	500
8	0	0	0	0	506	505
9	0	0	0	0	504	508
10	0	0	0	0	505	508
11	0	0	0	0	506	506
12	0	0	0	0	505	512
13	0	0	0	0	504	520
14	0	0	0	0	507	518
15	0	0	0	0	505	514
0	0	0	0	0	505	508
1	0	0	0	0	508	503
2	0	0	0	0	507	501
3	0	0	0	0	508	500
4	0	0	0	0	507	505
5	0	0	0	0	506	512
6	0	0	0	0	508	512
7	0	0	0	0	506	507
8	0	0	0	0	507	503
9	0	0	0	0	506	503
10	0	0	0	0	508	501
11	0	0	0	0	509	501
12	0	0	0	0	510	505
13	0	0	0	0	509	508
14	0	0	0	0	508	512
15	0	0	0	0	509	518
0	0	0	0	0	507	519
1	0	0	0	0	507	516
2	0	0	0	0	508	511
3	0	0	0	0	505	506
4	0	0	0	0	508	503
5	0	0	0	0	507	504
6	0	0	0	0	509	498
7	0	0	0	0	508	498
8	0	0	0	0	507	502
9	0	0	0	0	506	503
10	0	0	0	0	507	507
11	0	0	0	0	506	506
12	0	0	0	0	505	510
13	0	0	0	0	508	521
14	0	0	0	0	506	520
15	0	0	0	0	506	513
0	0	0	0	0	504	507
1	0	0	0	0	504	504
2	0	0	0	0	504	503
3	0	0	0	0	507	499
4	0	0	0	0	506	498
5	0	0	0	0	508	503
6	0	0	0	0	510	507
7	0	0	0	0	510	508
8	0	0	0	0	511	502
9	0	0	0	0	511	497
10	0	0	0	0	510	497
11	0	0	0	0	510	497
12	0	0	0	0	508	502
13	0	0	0	0	508	506
14	0	0	0	0	505	510
15	0	0	0	0	507	510
0	0	0	0	0	507	512
1	0	0	0	0	508	512
2	0	0	0	0	508	512
3	0	0	0	0	507	511
4	0	0	0	0	503	511
5	0	0	0	0	504	513
6	0	0	0	0	507	518
7	0	0	0	0	504	521
8	0	0	0	0	504	515
9	0	0	0	0	508	513
10	0	0	0	0	508	513
11	0	0	0	0	505	510
12	0	0	0	0	506	499
13	0	0	0	0	506	493
14	0	0	0	0	508	488
15	0	0	0	0	508	486
0	0	0	0	0	508	491
1	0	0	0	0	507	498
2	0	0	0	0	505	504
3	0	0	0	0	504	507
4	0	0	0	0	506	514
5	0	0	0	0	503	514
6	0	0	0	0	503	511
7	0	0	0	0	504	511
8	0	0	0	0	505	510
9	0	0	0	0	505	505
10	0	0	0	0	506	509
11	0	0	0	0	508	508
12	0	0	0	0	511	509
13	0	0	0	0	511	511
14	0	0	0	0	509	510
15	0	0	0	0	511	508
0	0	0	0	0	512	508
1	0	0	0	0	512	510
2	0	0	0	0	511	524
3	0	0	0	0	510	529
4	0	0	0	0	509	519
5	0	0	0	0	506	508
6	0	0	0	0	505	492
7	0	0	0	0	506	482
8	0	0	0	0	505	479
9	0	0	0	0	504	480
10	0	0	0	0	505	487
11	0	0	0	0	505	499
12	0	0	0	0	507	509
13	0	0	0	0	508	515
14	0	0	0	0	507	514
15	0	0	0	0	506	513
0	0	0	0	0	506	514
1	0	0	0	0	506	511
2	0	0	0	0	508	511
3	0	0	0	0	505	511
4	0	0	0	0	505	509
5	0	0	0	0	505	508
6	0	0	0	0	507	511
7	0	0	0	0	506	505
8	0	0	0	0	505	503
9	0	0	0	0	505	504
10	0	0	0	0	507	508
11	0	0	0	0	507	511
12	0	0	0	0	504	511
13	0	0	0	0	504	509
14	0	0	0	0	501	509
15	0	0	0	0	500	508
0	0	0	0	0	503	509
1	0	0	0	0	508	511
2	0	0	0	0	509	513
3	0	0	0	0	511	516
4	0	0	0	0	513	519
5	0	0	0	0	513	517
6	0	0	0	0	513	510
7	0	0	0	0	514	502
8	0	0	0	0	514	496
9	0	0	0	0	511	491
10	0	0	0	0	508	488
11	0	0	0	0	506	489
12	0	0	0	0	504	497
13	0	0	0	0	506	504
14	0	0	0	0	504	507
15	0	0	0	0	504	506
0	0	0	0	0	504	508
1	0	0	0	0	504	511
2	0	0	0	0	506	509
3	0	0	0	0	507	508
4	0	0	0	0	508	507
5	0	0	0	0	507	510
6	0	0	0	0	509	510
7	0	0	0	0	508	511
8	0	0	0	0	511	512
9	0	0	0	0	508	513
10	0	0	0	0	506	519
11	0	0	0	0	506	519
12	0	0	0	0	505	519
13	0	0	0	0	504	527
14	0	0	0	0	504	523
15	0	0	0	0	506	508
0	0	0	0	0	505	496
1	0	0	0	0	505	489
2	0	0	0	0	502	485
3	0	0	0	0	501	485
4	0	0	0	0	504	495
5	0	0	0	0	507	505
6	0	0	0	0	508	514
7	0	0	0	0	507	515
8	0	0	0	0	507	509
9	0	0	0	0	509	499
10	0	0	0	0	512	493
11	0	0	0	0	515	486
12	0	0	0	0	512	490
13	0	0	0	0	511	494
14	0	0	0	0	511	503
15	0	0	0	0	510	510
0	0	0	0	0	510	515
1	0	0	0	0	509	517
2	0	0	0	0	505	519
3	0	0	0	0	507	517
4	0	0	0	0	504	513
5	0	0	0	0	507	518
6	0	0	0	0	504	514
7	0	0	0	0	503	515
8	0	0	0	0	503	511
9	0	0	0	0	503	509
10	0	0	0	0	509	506
11	0	0	0	0	507	504
12	0	0	0	0	507	504
13	0	0	0	0	508	510
14	0	0	0	0	509	512
15	0	0	0	0	508	513
0	0	0	0	0	506	514
1	0	0	0	0	506	511
2	0	0	0	0	505	507
3	0	0	0	0	504	500
4	0	0	0	0	506	494
5	0	0	0	0	507	496
6	0	0	0	0	509	498
7	0	0	0	0	507	500
8	0	0	0	0	508	501
9	0	0	0	0	508	504
10	0	0	0	0	508	506
11	0	0	0	0	508	511
12	0	0	0	0	506	514
13	0	0	0	0	506	519
14	0	0	0	0	507	519
15	0	0	0	0	505	518
0	0	0	0	0	507	512
1	0	0	0	0	507	509
2	0	0	0	0	505	504
3	0	0	0	0	507	498
4	0	0	0	0	506	494
5	0	0	0	0	508	498
6	0	0	0	0	506	500
7	0	0	0	0	505	499
8	0	0	0	0	506	500
9	0	0	0	0	507	504
10	0	0	0	0	509	510
11	0	0	0	0	508	513
12	0	0	0	0	507	513
13	0	0	0	0	506	511
14	0	0	0	0	505	513
15	0	0	0	0	504	515
0	0	0	0	0	501	512
1	0	0	0	0	497	508
2	0	0	0	0	497	505
3	0	0	0	0	502	503
4	0	0	0	0	508	504
5	0	0	0	0	512	505
6	0	0	0	0	515	504
7	0	0	0	0	517	504
8	0	0	0	0	519	504
9	0	0	0	0	517	506
10	0	0	0	0	515	505
11	0	0	0	0	513	504
12	0	0	0	0	510	502
13	0	0	0	0	506	504
14	0	0	0	0	508	510
15	0	0	0	0	504	511
0	0	0	0	0	500	511
1	0	0	0	0	499	510
2	0	0	0	0	495	506
3	0	0	0	0	484	507
4	0	0	0	0	472	504
5	0	0	0	0	474	504
6	0	0	0	0	491	505
7	0	0	0	0	510	508
8	0	0	0	0	524	508
9	0	0	0	0	531	509
10	0	0	0	0	539	510
11	0	0	0	0	540	510
12	0	0	0	0	538	507
13	0	0	0	0	531	503
14	0	0	0	0	520	510
15	0	0	0	0	511	510
0	0	0	0	0	504	509
1	0	0	0	0	496	511
2	0	0	0	0	497	519
3	0	0	0	0	499	519
4	0	0	0	0	500	511
5	0	0	0	0	502	505
6	0	0	0	0	502	497
7	0	0	0	0	505	496
8	0	0	0	0	505	496
9	0	0	0	0	504	497
10	0	0	0	0	504	506
11	0	0	0	0	501	513
12	0	0	0	0	503	514
13	0	0	0	0	502	513
14	0	0	0	0	502	510
15	0	0	0	0	505	514
0	0	0	0	0	508	510
1	0	0	0	0	507	505
2	0	0	0	0	510	501
3	0	0	0	0	508	500
4	0	0	0	0	507	499
5	0	0	0	0	506	505
6	0	0	0	0	506	508
7	0	0	0	0	506	510
8	0	0	0	0	504	511
9	0	0	0	0	506	508
10	0	0	0	0	506	503
11	0	0	0	0	508	504
12	0	0	0	0	508	501
13	0	0	0	0	509	503
14	0	0	0	0	510	503
15	0	0	0	0	509	505
0	0	0	0	0	508	505
1	0	0	0	0	509	506
2	0	0	0	0	509	507
3	0	0	0	0	507	505
4	0	0	0	0	508	507
5	0	0	0	0	505	504
6	0	0	0	0	506	505
7	0	0	0	0	506	509
8	0	0	0	0	505	515
9	0	0	0	0	507	515
10	0	0	0	0	507	514
11	0	0	0	0	506	510
12	0	0	0	0	505	508
13	0	0	0	0	504	507
14	0	0	0	0	504	506
15	0	0	0	0	504	503
0	0	0	0	0	505	504
1	0	0	0	0	507	508
2	0	0	0	0	508	511
3	0	0	0	0	510	508
4	0	0	0	0	510	505
5	0	0	0	0	511	505
6	0	0	0	0	508	505
7	0	0	0	0	508	506
8	0	0	0	0	507	505
9	0	0	0	0	507	504
10	0	0	0	0	505	505
11	0	0	0	0	505	509
12	0	0	0	0	504	511
13	0	0	0	0	505	512
14	0	0	0	0	499	513
15	0	0	0	0	500	511
0	0	0	0	0	505	515
1	0	0	0	0	508	519
2	0	0	0	0	507	511
3	0	0	0	0	510	499
4	0	0	0	0	510	490
5	0	0	0	0	512	491
6	0	0	0	0	512	489
7	0	0	0	0	510	492
8	0	0	0	0	506	499
9	0	0	0	0	504	506
10	0	0	0	0	496	518
11	0	0	0	0	500	524
12	0	0	0	0	502	516
13	0	0	0	0	505	509
14	0	0	0	0	513	509
15	0	0	0	0	515	507
0	0	0	0	0	515	505
1	0	0	0	0	516	500
2	0	0	0	0	517	503
3	0	0	0	0	515	505
4	0	0	0	0	509	509
5	0	0	0	0	506	519
6	0	0	0	0	504	527
7	0	0	0	0	504	529
8	0	0	0	0	503	524
9	0	0	0	0	502	515
10	0	0	0	0	502	497
11	0	0	0	0	504	487
12	0	0	0	0	502	480
13	0	0	0	0	504	479
14	0	0	0	0	503	486
15	0	0	0	0	503	496
0	0	0	0	0	506	505
1	0	0	0	0	503	510
2	0	0	0	0	504	512
3	0	0	0	0	505	513
4	0	0	0	0	508	515
5	0	0	0	0	507	515
6	0	0	0	0	508	514
7	0	0	0	0	509	508
8	0	0	0	0	509	507
9	0	0	0	0	514	505
10	0	0	0	0	512	504
11	0	0	0	0	513	505
12	0	0	0	0	512	509
13	0	0	0	0	512	512
14	0	0	0	0	510	509
15	0	0	0	0	508	511
0	0	0	0	0	508	515
1	0	0	0	0	506	515
2	0	0	0	0	504	513
3	0	0	0	0	502	512
4	0	0	0	0	500	506
5	0	0	0	0	504	502
6	0	0	0	0	503	499
7	0	0	0	0	499	497
8	0	0	0	0	497	496
9	0	0	0	0	495	498
10	0	0	0	0	502	499
11	0	0	0	0	507	503
12	0	0	0	0	510	511
13	0	0	0	0	515	508
14	0	0	0	0	514	510
15	0	0	0	0	513	512
0	0	0	0	0	516	511
1	0	0	0	0	513	511
2	0	0	0	0	513	512
3	0	0	0	0	509	513
4	0	0	0	0	505	510
5	0	0	0	0	507	508
6	0	0	0	0	506	509
7	0	0	0	0	505	507
8	0	0	0	0	506	503
9	0	0	0	0	507	502
10	0	0	0	0	505	502
11	0	0	0	0	507	504
12	0	0	0	0	504	508
13	0	0	0	0	504	512
14	0	0	0	0	505	523
15	0	0	0	0	504	523
0	0	0	0	0	504	518
1	0	0	0	0	506	511
2	0	0	0	0	505	501
3	0	0	0	0	504	497
4	0	0	0	0	503	492
5	0	0	0	0	504	488
6	0	0	0	0	503	491
7	0	0	0	0	504	498
8	0	0	0	0	505	504
9	0	0	0	0	509	503
10	0	0	0	0	512	502
11	0	0	0	0	512	503
12	0	0	0	0	510	511
13	0	0	0	0	511	518
14	0	0	0	0	512	523
15	0	0	0	0	509	516
0	0	0	0	0	510	510
1	0	0	0	0	508	502
2	0	0	0	0	507	497
3	0	0	0	0	508	496
4	0	0	0	0	505	501
5	0	0	0	0	509	503
6	0	0	0	0	504	512
7	0	0	0	0	508	515
8	0	0	0	0	505	511
9	0	0	0	0	504	512
10	0	0	0	0	505	511
11	0	0	0	0	505	509
12	0	0	0	0	504	510
13	0	0	0	0	508	510
14	0	0	0	0	508	511
15	0	0	0	0	508	509
0	0	0	0	0	505	505
1	0	0	0	0	505	510
2	0	0	0	0	504	507
3	0	0	0	0	505	504
4	0	0	0	0	508	499
5	0	0	0	0	508	503
6	0	0	0	0	508	504
7	0	0	0	0	505	505
8	0	0	0	0	508	504
9	0	0	0	0	510	505
10	0	0	0	0	508	508
11	0	0	0	0	508	508
12	0	0	0	0	509	506
13	0	0	0	0	508	510
14	0	0	0	0	508	512
15	0	0	0	0	505	517
0	0	0	0	0	505	523
1	0	0	0	0	504	516
2	0	0	0	0	507	511
3	0	0	0	0	504	504
4	0	0	0	0	504	497
5	0	0	0	0	504	496
6	0	0	0	0	504	497
7	0	0	0	0	506	497
8	0	0	0	0	508	498
9	0	0	0	0	507	505
10	0	0	0	0	510	511
11	0	0	0	0	510	508
12	0	0	0	0	511	508
13	0	0	0	0	511	504
14	0	0	0	0	506	505
15	0	0	0	0	503	505
0	0	0	0	0	506	504
1	0	0	0	0	503	502
2	0	0	0	0	501	502
3	0	0	0	0	497	508
4	0	0	0	0	498	510
5	0	0	0	0	501	510
6	0	0	0	0	507	512
7	0	0	0	0	511	513
8	0	0	0	0	516	513
9	0	0	0	0	514	513
10	0	0	0	0	515	510
11	0	0	0	0	515	509
12	0	0	0	0	515	506
13	0	0	0	0	511	506
14	0	0	0	0	507	504
15	0	0	0	0	503	504
0	0	0	0	0	504	509
1	0	0	0	0	503	510
2	0	0	0	0	502	510
3	0	0	0	0	503	510
4	0	0	0	0	504	511
5	0	0	0	0	505	511
6	0	0	0	0	507	509
7	0	0	0	0	508	508
8	0	0	0	0	510	506
9	0	0	0	0	510	500
10	0	0	0	0	511	500
11	0	0	0	0	507	500
12	0	0	0	0	504	500
13	0	0	0	0	505	505
14	0	0	0	0	504	508
15	0	0	0	0	507	510
0	0	0	0	0	508	507
1	0	0	0	0	509	508
2	0	0	0	0	508	505
3	0	0	0	0	510	504
4	0	0	0	0	511	504
5	0	0	0	0	508	504
6	0	0	0	0	506	505
7	0	0	0	0	507	506
8	0	0	0	0	506	503
9	0	0	0	0	504	505
10	0	0	0	0	499	506
11	0	0	0	0	500	505
12	0	0	0	0	499	510
13	0	0	0	0	502	513
14	0	0	0	0	504	518
15	0	0	0	0	505	519
0	0	0	0	0	502	525
1	0	0	0	0	506	528
2	0	0	0	0	510	524
3	0	0	0	0	513	511
4	0	0	0	0	515	498
5	0	0	0	0	515	490
6	0	0	0	0	513	484
7	0	0	0	0	513	477
8	0	0	0	0	514	477
9	0	0	0	0	509	484
10	0	0	0	0	509	496
11	0	0	0	0	505	509
12	0	0	0	0	503	513
13	0	0	0	0	501	514
14	0	0	0	0	499	511
15	0	0	0	0	504	511
0	0	0	0	0	503	511
1	0	0	0	0	507	513
2	0	0	0	0	507	511
3	0	0	0	0	504	508
4	0	0	0	0	507	505
5	0	0	0	0	507	505
6	0	0	0	0	509	504
7	0	0	0	0	508	500
8	0	0	0	0	508	504
9	0	0	0	0	507	506
10	0	0	0	0	508	510
11	0	0	0	0	504	512
12	0	0	0	0	505	512
13	0	0	0	0	505	513
14	0	0	0	0	505	512
15	0	0	0	0	505	513
0	0	0	0	0	506	511
1	0	0	0	0	508	511
2	0	0	0	0	509	511
3	0	0	0	0	507	512
4	0	0	0	0	508	513
5	0	0	0	0	506	511
6	0	0	0	0	508	511
7	0	0	0	0	507	511
8	0	0	0	0	507	510
9	0	0	0	0	508	509
10	0	0	0	0	507	509
11	0	0	0	0	506	507
12	0	0	0	0	508	508
13	0	0	0	0	508	507
14	0	0	0	0	510	508
15	0	0	0	0	513	508
0	0	0	0	0	511	512
1	0	0	0	0	510	511
2	0	0	0	0	510	510
3	0	0	0	0	506	509
4	0	0	0	0	503	502
5	0	0	0	0	503	499
6	0	0	0	0	499	496
7	0	0	0	0	502	495
8	0	0	0	0	503	496
9	0	0	0	0	503	495
10	0	0	0	0	501	507
11	0	0	0	0	503	512
12	0	0	0	0	506	508
13	0	0	0	0	508	505
14	0	0	0	0	504	501
15	0	0	0	0	495	503
0	0	0	0	0	497	504
1	0	0	0	0	503	505
2	0	0	0	0	505	511
3	0	0	0	0	512	513
4	0	0	0	0	516	512
5	0	0	0	0	523	512
6	0	0	0	0	527	506
7	0	0	0	0	526	500
8	0	0	0	0	521	497
9	0	0	0	0	519	493
10	0	0	0	0	513	494
11	0	0	0	0	508	499
12	0	0	0	0	503	505
13	0	0	0	0	500	510
14	0	0	0	0	502	513
15	0	0	0	0	499	514
0	0	0	0	0	494	513
1	0	0	0	0	497	510
2	0	0	0	0	500	506
3	0	0	0	0	502	507
4	0	0	0	0	502	507
5	0	0	0	0	499	508
6	0	0	0	0	500	508
7	0	0	0	0	505	506
8	0	0	0	0	509	509
9	0	0	0	0	512	511
10	0	0	0	0	518	511
11	0	0	0	0	515	510
12	0	0	0	0	512	511
13	0	0	0	0	511	509
14	0	0	0	0	510	511
15	0	0	0	0	508	516
0	0	0	0	0	505	517
1	0	0	0	0	506	516
2	0	0	0	0	503	508
3	0	0	0	0	504	498
4	0	0	0	0	505	494
5	0	0	0	0	504	493
6	0	0	0	0	504	496
7	0	0	0	0	507	496
8	0	0	0	0	506	504
9	0	0	0	0	505	511
10	0	0	0	0	506	510
11	0	0	0	0	504	507
12	0	0	0	0	506	505
13	0	0	0	0	505	511
14	0	0	0	0	507	518
15	0	0	0	0	506	514
0	0	0	0	0	508	505
1	0	0	0	0	509	498
2	0	0	0	0	507	496
3	0	0	0	0	507	494
4	0	0	0	0	509	498
5	0	0	0	0	505	499
6	0	0	0	0	507	506
7	0	0	0	0	507	510
8	0	0	0	0	508	511
9	0	0	0	0	507	511
10	0	0	0	0	507	514
11	0	0	0	0	509	513
12	0	0	0	0	508	515
13	0	0	0	0	504	516
14	0	0	0	0	506	514
15	0	0	0	0	508	510
0	0	0	0	0	509	507
1	0	0	0	0	508	504
2	0	0	0	0	508	503
3	0	0	0	0	508	508
4	0	0	0	0	508	514
5	0	0	0	0	507	514
6	0	0	0	0	506	510
7	0	0	0	0	505	507
8	0	0	0	0	508	503
9	0	0	0	0	509	500
10	0	0	0	0	506	497
11	0	0	0	0	505	495
12	0	0	0	0	504	499
13	0	0	0	0	505	502
14	0	0	0	0	505	507
15	0	0	0	0	508	512
0	0	0	0	0	509	518
1	0	0	0	0	511	515
2	0	0	0	0	508	513
3	0	0	0	0	505	513
4	0	0	0	0	509	512
5	0	0	0	0	509	508
6	0	0	0	0	507	503
7	0	0	0	0	504	501
8	0	0	0	0	503	498
9	0	0	0	0	504	500
10	0	0	0	0	503	502
11	0	0	0	0	501	502
12	0	0	0	0	501	508
13	0	0	0	0	505	508
14	0	0	0	0	503	508
15	0	0	0	0	497	505
0	0	0	0	0	501	502
1	0	0	0	0	503	504
2	0	0	0	0	505	504
3	0	0	0	0	515	507
4	0	0	0	0	522	510
5	0	0	0	0	525	508
6	0	0	0	0	524	507
7	0	0	0	0	521	508
8	0	0	0	0	515	506
9	0	0	0	0	512	508
10	0	0	0	0	510	511
11	0	0	0	0	506	514
12	0	0	0	0	503	511
13	0	0	0	0	505	510
14	0	0	0	0	505	506
15	0	0	0	0	503	504
0	0	0	0	0	507	504
1	0	0	0	0	503	505
2	0	0	0	0	495	505
3	0	0	0	0	498	507
4	0	0	0	0	499	508
5	0	0	0	0	503	507
6	0	0	0	0	511	507
7	0	0	0	0	509	507
8	0	0	0	0	508	507
9	0	0	0	0	512	504
10	0	0	0	0	510	508
11	0	0	0	0	510	512
12	0	0	0	0	506	511
13	0	0	0	0	507	511
14	0	0	0	0	507	511
15	0	0	0	0	508	508
0	0	0	0	0	509	502
1	0	0	0	0	507	501
2	0	0	0	0	506	505
3	0	0	0	0	506	515
4	0	0	0	0	505	515
5	0	0	0	0	504	515
6	0	0	0	0	502	512
7	0	0	0	0	501	504
8	0	0	0	0	502	495
9	0	0	0	0	505	489
10	0	0	0	0	508	485
11	0	0	0	0	508	489
12	0	0	0	0	511	496
13	0	0	0	0	511	504
14	0	0	0	0	508	509
15	0	0	0	0	509	514
0	0	0	0	0	508	515
1	0	0	0	0	506	514
2	0	0	0	0	508	513
3	0	0	0	0	505	513
4	0	0	0	0	505	514
5	0	0	0	0	504	511
6	0	0	0	0	507	508
7	0	0	0	0	507	505
8	0	0	0	0	507	505
9	0	0	0	0	509	506
10	0	0	0	0	507	504
11	0	0	0	0	504	507
12	0	0	0	0	507	508
13	0	0	0	0	505	511
14	0	0	0	0	504	508
15	0	0	0	0	507	503
0	0	0	0	0	501	500
1	0	0	0	0	500	499
2	0	0	0	0	501	504
3	0	0	0	0	504	504
4	0	0	0	0	506	508
5	0	0	0	0	510	510
6	0	0	0	0	511	512
7	0	0	0	0	512	511
8	0	0	0	0	513	514
9	0	0	0	0	511	524
10	0	0	0	0	511	529
11	0	0	0	0	507	520
12	0	0	0	0	504	509
13	0	0	0	0	501	499
14	0	0	0	0	502	496
15	0	0	0	0	500	494
0	0	0	0	0	506	492
1	0	0	0	0	508	491
2	0	0	0	0	508	495
3	0	0	0	0	512	503
4	0	0	0	0	513	508
5	0	0	0	0	512	511
6	0	0	0	0	513	510
7	0	0	0	0	510	510
8	0	0	0	0	509	517
9	0	0	0	0	508	520
10	0	0	0	0	508	514
11	0	0	0	0	505	511
12	0	0	0	0	507	505
13	0	0	0	0	507	503
14	0	0	0	0	506	502
15	0	0	0	0	505	500
0	0	0	0	0	508	502
1	0	0	0	0	503	504
2	0	0	0	0	503	505
3	0	0	0	0	498	504
4	0	0	0	0	499	502
5	0	0	0	0	503	508
6	0	0	0	0	508	511
7	0	0	0	0	509	512
8	0	0	0	0	514	513
9	0	0	0	0	513	515
10	0	0	0	0	512	512
11	0	0	0	0	511	509
12	0	0	0	0	511	503
13	0	0	0	0	509	499
14	0	0	0	0	507	497
15	0	0	0	0	507	500
0	0	0	0	0	507	501
1	0	0	0	0	503	506
2	0	0	0	0	502	511
3	0	0	0	0	504	508
4	0	0	0	0	505	510
5	0	0	0	0	504	509
6	0	0	0	0	499	507
7	0	0	0	0	496	511
8	0	0	0	0	499	508
9	0	0	0	0	504	508
10	0	0	0	0	507	508
11	0	0	0	0	512	507
12	0	0	0	0	508	510
13	0	0	0	0	508	509
14	0	0	0	0	511	507
15	0	0	0	0	513	508
0	0	0	0	0	513	509
1	0	0	0	0	512	506
2	0	0	0	0	513	507
3	0	0	0	0	511	507
4	0	0	0	0	508	507
5	0	0	0	0	506	506
6	0	0	0	0	503	507
7	0	0	0	0	504	508
8	0	0	0	0	504	507
9	0	0	0	0	508	509
10	0	0	0	0	509	508
11	0	0	0	0	509	505
12	0	0	0	0	510	507
13	0	0	0	0	510	506
14	0	0	0	0	507	508
15	0	0	0	0	508	506
0	0	0	0	0	508	505
1	0	0	0	0	506	508
2	0	0	0	0	504	513
3	0	0	0	0	504	509
4	0	0	0	0	502	509
5	0	0	0	0	501	507
6	0	0	0	0	504	503
7	0	0	0	0	505	499
8	0	0	0	0	505	502
9	0	0	0	0	506	504
10	0	0	0	0	509	504
11	0	0	0	0	508	507
12	0	0	0	0	509	509
13	0	0	0	0	509	511
14	0	0	0	0	507	516
15	0	0	0	0	505	515
0	0	0	0	0	507	512
1	0	0	0	0	505	507
2	0	0	0	0	505	502
3	0	0	0	0	505	507
4	0	0	0	0	504	509
5	0	0	0	0	506	506
6	0	0	0	0	508	505
7	0	0	0	0	507	510
8	0	0	0	0	507	508
9	0	0	0	0	505	507
10	0	0	0	0	507	504
11	0	0	0	0	507	505
12	0	0	0	0	507	506
13	0	0	0	0	508	503
14	0	0	0	0	508	497
15	0	0	0	0	508	496
0	0	0	0	0	508	496
1	0	0	0	0	505	499
2	0	0	0	0	505	504
3	0	0	0	0	508	505
4	0	0	0	0	507	509
5	0	0	0	0	508	509
6	0	0	0	0	506	508
7	0	0	0	0	506	508
8	0	0	0	0	504	508
9	0	0	0	0	505	508
10	0	0	0	0	504	508
11	0	0	0	0	506	511
12	0	0	0	0	506	511
13	0	0	0	0	505	508
14	0	0	0	0	505	511
15	0	0	0	0	510	509
0	0	0	0	0	509	509
1	0	0	0	0	509	508
2	0	0	0	0	508	507
3	0	0	0	0	508	510
4	0	0	0	0	508	508
5	0	0	0	0	507	508
6	0	0	0	0	504	509
7	0	0	0	0	505	510
8	0	0	0	0	508	510
9	0	0	0	0	509	511
10	0	0	0	0	508	514
11	0	0	0	0	508	512
12	0	0	0	0	506	508
13	0	0	0	0	503	505
14	0	0	0	0	503	502
15	0	0	0	0	504	502
0	0	0	0	0	504	500
1	0	0	0	0	506	499
2	0	0	0	0	510	503
3	0	0	0	0	512	504
4	0	0	0	0	515	509
5	0	0	0	0	515	508
6	0	0	0	0	513	509
7	0	0	0	0	512	510
8	0	0	0	0	511	509
9	0	0	0	0	511	508
10	0	0	0	0	508	504
11	0	0	0	0	505	504
12	0	0	0	0	499	504
13	0	0	0	0	499	507
14	0	0	0	0	500	508
15	0	0	0	0	502	511
0	0	0	0	0	504	513
1	0	0	0	0	510	511
2	0	0	0	0	510	511
3	0	0	0	0	508	505
4	0	0	0	0	509	504
5	0	0	0	0	510	502
6	0	0	0	0	509	500
7	0	0	0	0	504	502
8	0	0	0	0	506	506
9	0	0	0	0	505	509
10	0	0	0	0	503	511
11	0	0	0	0	505	514
12	0	0	0	0	503	512
13	0	0	0	0	506	509
14	0	0	0	0	505	504
15	0	0	0	0	504	503
0	0	0	0	0	503	503
1	0	0	0	0	500	500
2	0	0	0	0	500	502
3	0	0	0	0	504	504
4	0	0	0	0	508	505
5	0	0	0	0	510	509
6	0	0	0	0	513	509
7	0	0	0	0	512	510
8	0	0	0	0	516	509
9	0	0	0	0	515	512
10	0	0	0	0	513	516
11	0	0	0	0	511	516
12	0	0	0	0	508	512
13	0	0	0	0	505	513
14	0	0	0	0	505	510
15	0	0	0	0	505	504
0	0	0	0	0	505	504
1	0	0	0	0	503	499
2	0	0	0	0	504	504
3	0	0	0	0	506	502
4	0	0	0	0	504	506
5	0	0	0	0	506	504
6	0	0	0	0	504	500
7	0	0	0	0	502	499
8	0	0	0	0	505	496
9	0	0	0	0	507	493
10	0	0	0	0	507	496
11	0	0	0	0	507	499
12	0	0	0	0	507	517
13	0	0	0	0	506	521
14	0	0	0	0	505	518
15	0	0	0	0	505	514
0	0	0	0	0	507	509
1	0	0	0	0	505	507
2	0	0	0	0	505	517
3	0	0	0	0	509	524
4	0	0	0	0	510	520
5	0	0	0	0	507	511
6	0	0	0	0	508	504
7	0	0	0	0	510	499
8	0	0	0	0	510	497
9	0	0	0	0	508	497
10	0	0	0	0	509	495
11	0	0	0	0	508	496
12	0	0	0	0	509	499
13	0	0	0	0	509	502
14	0	0	0	0	506	505
15	0	0	0	0	504	506
0	0	0	0	0	506	504
1	0	0	0	0	503	508
2	0	0	0	0	504	508
3	0	0	0	0	507	509
4	0	0	0	0	507	511
5	0	0	0	0	508	510
6	0	0	0	0	511	510
7	0	0	0	0	510	511
8	0	0	0	0	510	513
9	0	0	0	0	505	512
10	0	0	0	0	501	516
11	0	0	0	0	503	515
12	0	0	0	0	500	511
13	0	0	0	0	501	508
14	0	0	0	0	505	504
15	0	0	0	0	508	500
0	0	0	0	0	510	501
1	0	0	0	0	510	499
2	0	0	0	0	511	503
3	0	0	0	0	513	505
4	0	0	0	0	511	507
5	0	0	0	0	512	508
6	0	0	0	0	513	515
7	0	0	0	0	511	513
8	0	0	0	0	508	510
9	0	0	0	0	506	504
10	0	0	0	0	503	504
11	0	0	0	0	501	503
12	0	0	0	0	500	502
13	0	0	0	0	499	502
14	0	0	0	0	500	506
15	0	0	0	0	504	508
0	0	0	0	0	510	509
1	0	0	0	0	508	512
2	0	0	0	0	510	518
3	0	0	0	0	512	513
4	0	0	0	0	512	511
5	0	0	0	0	509	505
6	0	0	0	0	507	503
7	0	0	0	0	507	499
8	0	0	0	0	506	499
9	0	0	0	0	505	498
10	0	0	0	0	505	502
11	0	0	0	0	506	509
12	0	0	0	0	505	512
13	0	0	0	0	507	512
14	0	0	0	0	507	509
15	0	0	0	0	507	508
0	0	0	0	0	507	507
1	0	0	0	0	503	510
2	0	0	0	0	504	512
3	0	0	0	0	504	516
4	0	0	0	0	505	522
5	0	0	0	0	505	521
6	0	0	0	0	505	519
7	0	0	0	0	508	512
8	0	0	0	0	509	497
9	0	0	0	0	508	485
10	0	0	0	0	510	480
11	0	0	0	0	508	481
12	0	0	0	0	507	488
13	0	0	0	0	507	489
14	0	0	0	0	509	494
15	0	0	0	0	507	505
0	0	0	0	0	509	510
1	0	0	0	0	507	515
2	0	0	0	0	507	516
3	0	0	0	0	504	515
4	0	0	0	0	503	515
5	0	0	0	0	504	514
6	0	0	0	0	507	519
7	0	0	0	0	501	527
8	0	0	0	0	501	522
9	0	0	0	0	503	515
10	0	0	0	0	507	507
11	0	0	0	0	510	498
12	0	0	0	0	513	497
13	0	0	0	0	515	496
14	0	0	0	0	515	496
15	0	0	0	0	513	502
0	0	0	0	0	515	508
1	0	0	0	0	511	507
2	0	0	0	0	509	507
3	0	0	0	0	505	511
4	0	0	0	0	505	510
5	0	0	0	0	507	512
6	0	0	0	0	507	511
7	0	0	0	0	505	515
8	0	0	0	0	506	521
9	0	0	0	0	506	525
10	0	0	0	0	504	515
11	0	0	0	0	505	503
12	0	0	0	0	504	495
13	0	0	0	0	504	488
14	0	0	0	0	506	484
15	0	0	0	0	505	484
0	0	0	0	0	504	488
1	0	0	0	0	504	498
2	0	0	0	0	505	508
3	0	0	0	0	506	512
4	0	0	0	0	506	513
5	0	0	0	0	507	518
6	0	0	0	0	505	517
7	0	0	0	0	503	516
8	0	0	0	0	502	511
9	0	0	0	0	496	508
10	0	0	0	0	495	505
11	0	0	0	0	499	502
12	0	0	0	0	500	502
13	0	0	0	0	506	505
14	0	0	0	0	512	510
15	0	0	0	0	516	512
0	0	0	0	0	521	515
1	0	0	0	0	523	520
2	0	0	0	0	521	519
3	0	0	0	0	519	511
4	0	0	0	0	515	504
5	0	0	0	0	511	499
6	0	0	0	0	507	499
7	0	0	0	0	504	497
8	0	0	0	0	504	502
9	0	0	0	0	504	509
10	0	0	0	0	504	510
11	0	0	0	0	504	512
12	0	0	0	0	505	508
13	0	0	0	0	504	505
14	0	0	0	0	504	506
15	0	0	0	0	507	504
0	0	0	0	0	509	502
1	0	0	0	0	503	505
2	0	0	0	0	504	506
3	0	0	0	0	502	508
4	0	0	0	0	502	507
5	0	0	0	0	502	513
6	0	0	0	0	504	515
7	0	0	0	0	507	511
8	0	0	0	0	504	507
9	0	0	0	0	506	503
10	0	0	0	0	509	503
11	0	0	0	0	507	509
12	0	0	0	0	508	515
13	0	0	0	0	508	515
14	0	0	0	0	509	509
15	0	0	0	0	508	508
0	0	0	0	0	507	503
1	0	0	0	0	505	501
2	0	0	0	0	507	496
3	0	0	0	0	503	499
4	0	0	0	0	502	508
5	0	0	0	0	504	508
6	0	0	0	0	508	512
7	0	0	0	0	514	520
8	0	0	0	0	517	532
9	0	0	0	0	514	521
10	0	0	0	0	515	505
11	0	0	0	0	514	491
12	0	0	0	0	513	484
13	0	0	0	0	509	482
14	0	0	0	0	505	483
15	0	0	0	0	502	483
0	0	0	0	0	502	494
1	0	0	0	0	503	507
2	0	0	0	0	504	513
3	0	0	0	0	505	515
4	0	0	0	0	504	515
5	0	0	0	0	506	513
6	0	0	0	0	505	515
7	0	0	0	0	507	515
8	0	0	0	0	504	513
9	0	0	0	0	503	512
10	0	0	0	0	498	511
11	0	0	0	0	500	508
12	0	0	0	0	499	510
13	0	0	0	0	505	513
14	0	0	0	0	508	513
15	0	0	0	0	513	510
0	0	0	0	0	510	512
1	0	0	0	0	511	517
2	0	0	0	0	511	518
3	0	0	0	0	513	515
4	0	0	0	0	510	509
5	0	0	0	0	510	503
6	0	0	0	0	507	496
7	0	0	0	0	507	491
8	0	0	0	0	508	490
9	0	0	0	0	506	493
10	0	0	0	0	507	496
11	0	0	0	0	502	499
12	0	0	0	0	500	504
13	0	0	0	0	503	504
14	0	0	0	0	504	508
15	0	0	0	0	507	515
0	0	0	0	0	507	527
1	0	0	0	0	504	529
2	0	0	0	0	499	520
3	0	0	0	0	504	512
4	0	0	0	0	505	503
5	0	0	0	0	504	494
6	0	0	0	0	507	489
7	0	0	0	0	507	487
8	0	0	0	0	511	492
9	0	0	0	0	515	499
10	0	0	0	0	519	507
11	0	0	0	0	519	513
12	0	0	0	0	519	515
13	0	0	0	0	514	515
14	0	0	0	0	512	513
15	0	0	0	0	508	513
0	0	0	0	0	505	512
1	0	0	0	0	503	511
2	0	0	0	0	503	509
3	0	0	0	0	504	509
4	0	0	0	0	502	511
5	0	0	0	0	503	520
6	0	0	0	0	505	528
7	0	0	0	0	505	526
8	0	0	0	0	505	516
9	0	0	0	0	507	505
10	0	0	0	0	508	502
11	0	0	0	0	509	492
12	0	0	0	0	506	487
13	0	0	0	0	509	494
14	0	0	0	0	506	503
15	0	0	0	0	507	507
0	0	0	0	0	506	501
1	0	0	0	0	507	499
2	0	0	0	0	506	503
3	0	0	0	0	505	505
4	0	0	0	0	504	505
5	0	0	0	0	505	506
6	0	0	0	0	504	509
7	0	0	0	0	506	511
8	0	0	0	0	508	512
9	0	0	0	0	505	516
10	0	0	0	0	504	510
11	0	0	0	0	507	503
12	0	0	0	0	507	495
13	0	0	0	0	505	496
14	0	0	0	0	507	495
15	0	0	0	0	507	498
0	0	0	0	0	504	500
1	0	0	0	0	504	507
2	0	0	0	0	505	510
3	0	0	0	0	507	512
4	0	0	0	0	508	512
5	0	0	0	0	507	512
6	0	0	0	0	505	511
7	0	0	0	0	505	511
8	0	0	0	0	507	511
9	0	0	0	0	504	509
10	0	0	0	0	501	508
11	0	0	0	0	499	508
12	0	0	0	0	500	512
13	0	0	0	0	503	514
14	0	0	0	0	509	511
15	0	0	0	0	515	507
0	0	0	0	0	518	505
1	0	0	0	0	518	504
2	0	0	0	0	517	502
3	0	0	0	0	518	502
4	0	0	0	0	512	504
5	0	0	0	0	505	510
6	0	0	0	0	504	513
7	0	0	0	0	503	517
8	0	0	0	0	504	515
9	0	0	0	0	506	507
10	0	0	0	0	508	502
11	0	0	0	0	511	497
12	0	0	0	0	508	493
13	0	0	0	0	511	493
14	0	0	0	0	509	500
15	0	0	0	0	504	501
0	0	0	0	0	500	509
1	0	0	0	0	490	510
2	0	0	0	0	487	512
3	0	0	0	0	492	512
4	0	0	0	0	499	511
5	0	0	0	0	511	508
6	0	0	0	0	519	510
7	0	0	0	0	525	508
8	0	0	0	0	529	510
9	0	0	0	0	526	510
10	0	0	0	0	524	509
11	0	0	0	0	523	512
12	0	0	0	0	518	510
13	0	0	0	0	514	508
14	0	0	0	0	503	505
15	0	0	0	0	499	504
0	0	0	0	0	499	504
1	0	0	0	0	497	505
2	0	0	0	0	502	504
3	0	0	0	0	499	505
4	0	0	0	0	499	505
5	0	0	0	0	499	504
6	0	0	0	0	502	505
7	0	0	0	0	503	507
8	0	0	0	0	504	510
9	0	0	0	0	502	510
10	0	0	0	0	503	513
11	0	0	0	0	505	520
12	0	0	0	0	506	523
13	0	0	0	0	506	513
14	0	0	0	0	505	505
15	0	0	0	0	508	497
0	0	0	0	0	507	493
1	0	0	0	0	512	496
2	0	0	0	0	510	495
3	0	0	0	0	510	499
4	0	0	0	0	507	506
5	0	0	0	0	505	511
6	0	0	0	0	507	511
7	0	0	0	0	510	508
8	0	0	0	0	508	510
9	0	0	0	0	504	517
10	0	0	0	0	503	515
11	0	0	0	0	505	509
12	0	0	0	0	505	500
13	0	0	0	0	507	492
14	0	0	0	0	505	492
15	0	0	0	0	505	494
0	0	0	0	0	508	495
1	0	0	0	0	507	500
2	0	0	0	0	509	506
3	0	0	0	0	507	511
4	0	0	0	0	505	512
5	0	0	0	0	505	513
6	0	0	0	0	504	512
7	0	0	0	0	506	511
8	0	0	0	0	507	512
9	0	0	0	0	507	512
10	0	0	0	0	506	511
11	0	0	0	0	507	507
12	0	0	0	0	507	511
13	0	0	0	0	508	509
14	0	0	0	0	509	509
15	0	0	0	0	510	508
0	0	0	0	0	507	509
1	0	0	0	0	505	510
2	0	0	0	0	507	510
3	0	0	0	0	509	508
4	0	0	0	0	509	508
5	0	0	0	0	505	507
6	0	0	0	0	504	507
7	0	0	0	0	505	505
8	0	0	0	0	506	507
9	0	0	0	0	504	508
10	0	0	0	0	503	508
11	0	0	0	0	505	507
12	0	0	0	0	505	511
13	0	0	0	0	505	511
14	0	0	0	0	509	511
15	0	0	0	0	506	511
0	0	0	0	0	507	510
1	0	0	0	0	511	512
2	0	0	0	0	507	512
3	0	0	0	0	507	503
4	0	0	0	0	503	502
5	0	0	0	0	503	499
6	0	0	0	0	505	496
7	0	0	0	0	508	494
8	0	0	0	0	514	493
9	0	0	0	0	515	495
10	0	0	0	0	518	499
11	0	0	0	0	518	507
12	0	0	0	0	518	510
13	0	0	0	0	516	512
14	0	0	0	0	511	511
15	0	0	0	0	506	510
0	0	0	0	0	504	513
1	0	0	0	0	502	515
2	0	0	0	0	499	512
3	0	0	0	0	499	510
4	0	0	0	0	499	511
5	0	0	0	0	495	519
6	0	0	0	0	492	514
7	0	0	0	0	495	503
8	0	0	0	0	502	496
9	0	0	0	0	504	494
10	0	0	0	0	509	495
11	0	0	0	0	512	495
12	0	0	0	0	513	496
13	0	0	0	0	517	498
14	0	0	0	0	515	503
15	0	0	0	0	511	507
0	0	0	0	0	510	509
1	0	0	0	0	511	512
2	0	0	0	0	513	512
3	0	0	0	0	511	514
4	0	0	0	0	511	513
5	0	0	0	0	505	512
6	0	0	0	0	507	511
7	0	0	0	0	504	513
8	0	0	0	0	506	510
9	0	0	0	0	504	509
10	0	0	0	0	506	508
11	0	0	0	0	505	510
12	0	0	0	0	505	508
13	0	0	0	0	505	507
14	0	0	0	0	504	507
15	0	0	0	0	503	507
0	0	0	0	0	505	505
1	0	0	0	0	505	505
2	0	0	0	0	507	510
3	0	0	0	0	504	507
4	0	0	0	0	508	507
5	0	0	0	0	505	506
6	0	0	0	0	507	506
7	0	0	0	0	504	504
8	0	0	0	0	503	502
9	0	0	0	0	505	503
10	0	0	0	0	505	505
11	0	0	0	0	509	508
12	0	0	0	0	509	509
13	0	0	0	0	508	510
14	0	0	0	0	506	510
15	0	0	0	0	507	507
0	0	0	0	0	508	505
1	0	0	0	0	505	503
2	0	0	0	0	508	502
3	0	0	0	0	509	504
4	0	0	0	0	508	507
5	0	0	0	0	511	508
6	0	0	0	0	507	508
7	0	0	0	0	505	509
8	0	0	0	0	505	508
9	0	0	0	0	506	509
10	0	0	0	0	510	510
11	0	0	0	0	508	510
12	0	0	0	0	508	511
13	0	0	0	0	508	512
14	0	0	0	0	504	512
15	0	0	0	0	504	508
0	0	0	0	0	503	505
1	0	0	0	0	502	507
2	0	0	0	0	502	505
3	0	0	0	0	504	504
4	0	0	0	0	505	508
5	0	0	0	0	510	520
6	0	0	0	0	511	526
7	0	0	0	0	510	520
8	0	0	0	0	508	512
9	0	0	0	0	510	502
10	0	0	0	0	509	492
11	0	0	0	0	508	486
12	0	0	0	0	510	483
13	0	0	0	0	512	482
14	0	0	0	0	511	490
15	0	0	0	0	509	497
0	0	0	0	0	503	507
1	0	0	0	0	494	513
2	0	0	0	0	496	512
3	0	0	0	0	496	515
4	0	0	0	0	502	513
5	0	0	0	0	509	512
6	0	0	0	0	515	513
7	0	0	0	0	518	512
8	0	0	0	0	522	510
9	0	0	0	0	520	511
10	0	0	0	0	519	513
11	0	0	0	0	516	515
12	0	0	0	0	512	516
13	0	0	0	0	508	513
14	0	0	0	0	500	510
15	0	0	0	0	497	507
0	0	0	0	0	501	509
1	0	0	0	0	504	512
2	0	0	0	0	505	508
3	0	0	0	0	505	503
4	0	0	0	0	504	514
5	0	0	0	0	502	520
6	0	0	0	0	502	515
7	0	0	0	0	501	501
8	0	0	0	0	503	492
9	0	0	0	0	505	488
10	0	0	0	0	506	485
11	0	0	0	0	508	482
12	0	0	0	0	510	488
13	0	0	0	0	509	496
14	0	0	0	0	511	503
15	0	0	0	0	511	511
0	0	0	0	0	512	514
1	0	0	0	0	510	516
2	0	0	0	0	504	515
3	0	0	0	0	501	512
4	0	0	0	0	501	512
5	0	0	0	0	506	515
6	0	0	0	0	507	514
7	0	0	0	0	513	511
8	0	0	0	0	510	512
9	0	0	0	0	512	508
10	0	0	0	0	511	510
11	0	0	0	0	513	506
12	0	0	0	0	508	504
13	0	0	0	0	508	508
14	0	0	0	0	503	509
15	0	0	0	0	504	507
0	0	0	0	0	504	512
1	0	0	0	0	503	509
2	0	0	0	0	505	511
3	0	0	0	0	506	508
4	0	0	0	0	505	506
5	0	0	0	0	506	513
6	0	0	0	0	504	514
7	0	0	0	0	505	514
8	0	0	0	0	505	511
9	0	0	0	0	505	507
10	0	0	0	0	507	503
11	0	0	0	0	507	497
12	0	0	0	0	506	492
13	0	0	0	0	505	490
14	0	0	0	0	507	494
15	0	0	0	0	496	497
0	0	0	0	0	494	503
1	0	0	0	0	496	505
2	0	0	0	0	501	508
3	0	0	0	0	509	510
4	0	0	0	0	512	512
5	0	0	0	0	516	510
6	0	0	0	0	519	510
7	0	0	0	0	522	509
8	0	0	0	0	521	512
9	0	0	0	0	517	511
10	0	0	0	0	514	510
11	0	0	0	0	511	511
12	0	0	0	0	508	509
13	0	0	0	0	504	511
14	0	0	0	0	504	509
15	0	0	0	0	504	508
0	0	0	0	0	501	506
1	0	0	0	0	502	505
2	0	0	0	0	503	503
3	0	0	0	0	504	503
4	0	0	0	0	503	506
5	0	0	0	0	503	504
6	0	0	0	0	503	505
7	0	0	0	0	501	506
8	0	0	0	0	497	506
9	0	0	0	0	499	507
10	0	0	0	0	503	508
11	0	0	0	0	506	507
12	0	0	0	0	509	504
13	0	0	0	0	513	507
14	0	0	0	0	516	508
15	0	0	0	0	518	505
0	0	0	0	0	517	508
1	0	0	0	0	515	510
2	0	0	0	0	511	508
3	0	0	0	0	510	507
4	0	0	0	0	505	511
5	0	0	0	0	503	507
6	0	0	0	0	504	511
7	0	0	0	0	504	512
8	0	0	0	0	505	511
9	0	0	0	0	505	513
10	0	0	0	0	506	517
11	0	0	0	0	508	514
12	0	0	0	0	505	507
13	0	0	0	0	505	502
14	0	0	0	0	504	496
15	0	0	0	0	505	490
0	0	0	0	0	506	492
1	0	0	0	0	508	496
2	0	0	0	0	508	502
3	0	0	0	0	510	508
4	0	0	0	0	509	509
5	0	0	0	0	509	512
6	0	0	0	0	508	512
7	0	0	0	0	507	511
8	0	0	0	0	508	514
9	0	0	0	0	507	518
10	0	0	0	0	506	519
11	0	0	0	0	507	523
12	0	0	0	0	504	517
13	0	0	0	0	504	512
14	0	0	0	0	507	502
15	0	0	0	0	508	492
0	0	0	0	0	507	487
1	0	0	0	0	506	487
2	0	0	0	0	504	490
3	0	0	0	0	506	499
4	0	0	0	0	505	509
5	0	0	0	0	505	530
6	0	0	0	0	507	530
7	0	0	0	0	509	518
8	0	0	0	0	509	508
9	0	0	0	0	508	496
10	0	0	0	0	508	492
11	0	0	0	0	508	488
12	0	0	0	0	506	487
13	0	0	0	0	507	499
14	0	0	0	0	506	508
15	0	0	0	0	506	512
0	0	0	0	0	505	511
1	0	0	0	0	505	512
2	0	0	0	0	508	511
3	0	0	0	0	509	512
4	0	0	0	0	508	511
5	0	0	0	0	508	510
6	0	0	0	0	507	511
7	0	0	0	0	508	511
8	0	0	0	0	508	510
9	0	0	0	0	505	507
10	0	0	0	0	502	508
11	0	0	0	0	500	508
12	0	0	0	0	500	510
13	0	0	0	0	500	511
14	0	0	0	0	506	509
15	0	0	0	0	508	507
0	0	0	0	0	511	503
1	0	0	0	0	515	506
2	0	0	0	0	507	504
3	0	0	0	0	507	505
4	0	0	0	0	503	507
5	0	0	0	0	504	506
6	0	0	0	0	509	508
7	0	0	0	0	512	508
8	0	0	0	0	516	510
9	0	0	0	0	518	508
10	0	0	0	0	516	515
11	0	0	0	0	514	522
12	0	0	0	0	513	517
13	0	0	0	0	511	509
14	0	0	0	0	508	503
15	0	0	0	0	506	498
0	0	0	0	0	503	495
1	0	0	0	0	503	492
2	0	0	0	0	504	492
3	0	0	0	0	502	502
4	0	0	0	0	504	509
5	0	0	0	0	504	513
6	0	0	0	0	505	514
7	0	0	0	0	503	511
8	0	0	0	0	504	509
9	0	0	0	0	503	512
10	0	0	0	0	504	512
11	0	0	0	0	504	508
12	0	0	0	0	503	507
13	0	0	0	0	503	510
14	0	0	0	0	502	514
15	0	0	0	0	504	516
0	0	0	0	0	504	512
1	0	0	0	0	509	503
2	0	0	0	0	508	496
3	0	0	0	0	512	492
4	0	0	0	0	512	491
5	0	0	0	0	513	492
6	0	0	0	0	511	497
7	0	0	0	0	509	504
8	0	0	0	0	510	508
9	0	0	0	0	505	508
10	0	0	0	0	508	510
11	0	0	0	0	506	509
12	0	0	0	0	507	508
13	0	0	0	0	504	507
14	0	0	0	0	504	506
15	0	0	0	0	504	505
0	0	0	0	0	505	509
1	0	0	0	0	507	510
2	0	0	0	0	505	511
3	0	0	0	0	509	511
4	0	0	0	0	509	509
5	0	0	0	0	508	509
6	0	0	0	0	508	511
7	0	0	0	0	510	509
8	0	0	0	0	509	508
9	0	0	0	0	510	508
10	0	0	0	0	510	510
11	0	0	0	0	508	513
12	0	0	0	0	507	514
13	0	0	0	0	505	512
14	0	0	0	0	505	515
15	0	0	0	0	504	515
0	0	0	0	0	504	513
1	0	0	0	0	502	511
2	0	0	0	0	494	502
3	0	0	0	0	495	499
4	0	0	0	0	499	494
5	0	0	0	0	503	494
6	0	0	0	0	507	493
7	0	0	0	0	512	497
8	0	0	0	0	519	499
9	0	0	0	0	522	507
10	0	0	0	0	524	505
11	0	0	0	0	519	504
12	0	0	0	0	517	503
13	0	0	0	0	513	503
14	0	0	0	0	508	505
15	0	0	0	0	505	507
0	0	0	0	0	503	508
1	0	0	0	0	503	511
2	0	0	0	0	503	511
3	0	0	0	0	501	513
4	0	0	0	0	502	512
5	0	0	0	0	504	510
6	0	0	0	0	504	511
7	0	0	0	0	502	510
8	0	0	0	0	503	508
9	0	0	0	0	505	510
10	0	0	0	0	504	511
11	0	0	0	0	506	515
12	0	0	0	0	507	520
13	0	0	0	0	505	521
14	0	0	0	0	503	511
15	0	0	0	0	504	503
0	0	0	0	0	507	499
1	0	0	0	0	510	498
2	0	0	0	0	508	495
3	0	0	0	0	509	492
4	0	0	0	0	510	495
5	0	0	0	0	509	499
6	0	0	0	0	512	503
7	0	0	0	0	510	502
8	0	0	0	0	511	501
9	0	0	0	0	507	504
10	0	0	0	0	508	509
11	0	0	0	0	506	510
12	0	0	0	0	508	509
13	0	0	0	0	505	511
14	0	0	0	0	504	514
15	0	0	0	0	501	522
0	0	0	0	0	502	522
1	0	0	0	0	503	523
2	0	0	0	0	503	515
3	0	0	0	0	508	507
4	0	0	0	0	511	501
5	0	0	0	0	510	498
6	0	0	0	0	508	500
7	0	0	0	0	508	507
8	0	0	0	0	511	510
9	0	0	0	0	513	510
10	0	0	0	0	508	505
11	0	0	0	0	508	497
12	0	0	0	0	507	494
13	0	0	0	0	507	496
14	0	0	0	0	508	499
15	0	0	0	0	506	500
0	0	0	0	0	502	504
1	0	0	0	0	502	508
2	0	0	0	0	507	511
3	0	0	0	0	509	513
4	0	0	0	0	510	514
5	0	0	0	0	505	515
6	0	0	0	0	505	514
7	0	0	0	0	507	511
8	0	0	0	0	506	508
9	0	0	0	0	505	504
10	0	0	0	0	503	502
11	0	0	0	0	507	497
12	0	0	0	0	510	499
13	0	0	0	0	514	505
14	0	0	0	0	516	508
15	0	0	0	0	515	509
0	0	0	0	0	513	513
1	0	0	0	0	512	513
2	0	0	0	0	510	510
3	0	0	0	0	508	510
4	0	0	0	0	505	511
5	0	0	0	0	502	516
6	0	0	0	0	503	517
7	0	0	0	0	503	513
8	0	0	0	0	504	509
9	0	0	0	0	504	504
10	0	0	0	0	504	499
11	0	0	0	0	505	495
12	0	0	0	0	505	494
13	0	0	0	0	503	495
14	0	0	0	0	499	502
15	0	0	0	0	501	504
0	0	0	0	0	505	507
1	0	0	0	0	505	508
2	0	0	0	0	506	510
3	0	0	0	0	506	513
4	0	0	0	0	509	513
5	0	0	0	0	510	511
6	0	0	0	0	510	514
7	0	0	0	0	511	517
8	0	0	0	0	512	527
9	0	0	0	0	510	523
10	0	0	0	0	508	511
11	0	0	0	0	507	498
12	0	0	0	0	507	491
13	0	0	0	0	502	487
14	0	0	0	0	502	485
15	0	0	0	0	504	486
0	0	0	0	0	505	493
1	0	0	0	0	509	501
2	0	0	0	0	510	504
3	0	0	0	0	511	506
4	0	0	0	0	511	508
5	0	0	0	0	508	511
6	0	0	0	0	504	514
7	0	0	0	0	503	515
8	0	0	0	0	502	515
9	0	0	0	0	497	519
10	0	0	0	0	495	518
11	0	0	0	0	499	519
12	0	0	0	0	508	518
13	0	0	0	0	514	513
14	0	0	0	0	520	512
15	0	0	0	0	518	510
0	0	0	0	0	518	508
1	0	0	0	0	516	509
2	0	0	0	0	513	503
3	0	0	0	0	508	499
4	0	0	0	0	506	494
5	0	0	0	0	504	492
6	0	0	0	0	504	491
7	0	0	0	0	506	491
8	0	0	0	0	505	497
9	0	0	0	0	504	504
10	0	0	0	0	505	506
11	0	0	0	0	507	510
12	0	0	0	0	507	512
13	0	0	0	0	508	511
14	0	0	0	0	508	512
15	0	0	0	0	506	515
0	0	0	0	0	508	517
1	0	0	0	0	507	515
2	0	0	0	0	504	511
3	0	0	0	0	507	507
4	0	0	0	0	510	506
5	0	0	0	0	509	505
6	0	0	0	0	505	502
7	0	0	0	0	510	504
8	0	0	0	0	507	503
9	0	0	0	0	504	507
10	0	0	0	0	506	510
11	0	0	0	0	507	509
12	0	0	0	0	508	509
13	0	0	0	0	505	507
14	0	0	0	0	504	509
15	0	0	0	0	504	511
0	0	0	0	0	502	509
1	0	0	0	0	504	512
2	0	0	0	0	506	512
3	0	0	0	0	506	510
4	0	0	0	0	508	509
5	0	0	0	0	509	503
6	0	0	0	0	504	496
7	0	0	0	0	502	501
8	0	0	0	0	501	506
9	0	0	0	0	503	514
10	0	0	0	0	509	519
11	0	0	0	0	512	516
12	0	0	0	0	512	508
13	0	0	0	0	515	504
14	0	0	0	0	516	495
15	0	0	0	0	514	493
0	0	0	0	0	508	493
1	0	0	0	0	509	498
2	0	0	0	0	503	503
3	0	0	0	0	504	509
4	0	0	0	0	501	512
5	0	0	0	0	502	513
6	0	0	0	0	502	515
7	0	0	0	0	504	513
8	0	0	0	0	508	512
9	0	0	0	0	506	511
10	0	0	0	0	510	516
11	0	0	0	0	512	517
12	0	0	0	0	511	512
13	0	0	0	0	512	508
14	0	0	0	0	512	502
15	0	0	0	0	506	496
0	0	0	0	0	506	497
1	0	0	0	0	506	498
2	0	0	0	0	508	501
3	0	0	0	0	506	505
4	0	0	0	0	505	511
5	0	0	0	0	505	508
6	0	0	0	0	503	510
7	0	0	0	0	503	509
8	0	0	0	0	504	507
9	0	0	0	0	504	507
10	0	0	0	0	504	506
11	0	0	0	0	503	508
12	0	0	0	0	505	510
13	0	0	0	0	505	512
14	0	0	0	0	506	513
15	0	0	0	0	508	511
0	0	0	0	0	513	512
1	0	0	0	0	513	518
2	0	0	0	0	512	517
3	0	0	0	0	509	513
4	0	0	0	0	506	511
5	0	0	0	0	501	502
6	0	0	0	0	502	489
7	0	0	0	0	506	486
8	0	0	0	0	511	487
9	0	0	0	0	510	488
10	0	0	0	0	512	487
11	0	0	0	0	505	497
12	0	0	0	0	500	504
13	0	0	0	0	489	508
14	0	0	0	0	485	510
15	0	0	0	0	490	506
0	0	0	0	0	502	510
1	0	0	0	0	515	512
2	0	0	0	0	520	511
3	0	0	0	0	526	511
4	0	0	0	0	527	516
5	0	0	0	0	526	518
6	0	0	0	0	521	521
7	0	0	0	0	515	524
8	0	0	0	0	515	523
9	0	0	0	0	508	521
10	0	0	0	0	504	515
11	0	0	0	0	500	502
12	0	0	0	0	499	488
13	0	0	0	0	499	482
14	0	0	0	0	500	478
15	0	0	0	0	499	482
0	0	0	0	0	497	488
1	0	0	0	0	493	498
2	0	0	0	0	491	508
3	0	0	0	0	494	513
4	0	0	0	0	500	515
5	0	0	0	0	510	515
6	0	0	0	0	513	514
7	0	0	0	0	519	513
8	0	0	0	0	520	510
9	0	0	0	0	520	512
10	0	0	0	0	515	511
11	0	0	0	0	517	513
12	0	0	0	0	513	512
13	0	0	0	0	515	510
14	0	0	0	0	508	509
15	0	0	0	0	505	508
0	0	0	0	0	507	511
1	0	0	0	0	504	517
2	0	0	0	0	504	518
3	0	0	0	0	503	510
4	0	0	0	0	502	504
5	0	0	0	0	500	499
6	0	0	0	0	501	504
7	0	0	0	0	499	506
8	0	0	0	0	503	506
9	0	0	0	0	504	505
10	0	0	0	0	507	505
11	0	0	0	0	506	504
12	0	0	0	0	507	504
13	0	0	0	0	508	501
14	0	0	0	0	508	502
15	0	0	0	0	508	505
0	0	0	0	0	506	512
1	0	0	0	0	505	517
2	0	0	0	0	505	512
3	0	0	0	0	507	510
4	0	0	0	0	506	507
5	0	0	0	0	505	504
6	0	0	0	0	502	502
7	0	0	0	0	503	504
8	0	0	0	0	505	502
9	0	0	0	0	505	501
10	0	0	0	0	508	503
11	0	0	0	0	511	507
12	0	0	0	0	510	505
13	0	0	0	0	512	509
14	0	0	0	0	515	511
15	0	0	0	0	512	508
0	0	0	0	0	512	505
1	0	0	0	0	508	505
2	0	0	0	0	508	503
3	0	0	0	0	507	502
4	0	0	0	0	507	505
5	0	0	0	0	506	508
6	0	0	0	0	506	512
7	0	0	0	0	504	518
8	0	0	0	0	506	520
9	0	0	0	0	503	518
10	0	0	0	0	504	513
11	0	0	0	0	502	509
12	0	0	0	0	500	506
13	0	0	0	0	503	503
14	0	0	0	0	504	496
15	0	0	0	0	507	492
0	0	0	0	0	510	491
1	0	0	0	0	510	498
2	0	0	0	0	513	503
3	0	0	0	0	513	504
4	0	0	0	0	515	509
5	0	0	0	0	510	516
6	0	0	0	0	509	520
7	0	0	0	0	508	523
8	0	0	0	0	508	516
9	0	0	0	0	506	508
10	0	0	0	0	508	500
11	0	0	0	0	506	498
12	0	0	0	0	503	499
13	0	0	0	0	497	502
14	0	0	0	0	496	502
15	0	0	0	0	494	505
0	0	0	0	0	476	505
1	0	0	0	0	472	507
2	0	0	0	0	480	503
3	0	0	0	0	500	500
4	0	0	0	0	516	500
5	0	0	0	0	536	502
6	0	0	0	0	546	505
7	0	0	0	0	547	509
8	0	0	0	0	546	513
9	0	0	0	0	541	511
10	0	0	0	0	530	511
11	0	0	0	0	517	512
12	0	0	0	0	505	511
13	0	0	0	0	502	512
14	0	0	0	0	499	512
15	0	0	0	0	497	510
0	0	0	0	0	496	513
1	0	0	0	0	497	513
2	0	0	0	0	496	516
3	0	0	0	0	499	515
4	0	0	0	0	500	512
5	0	0	0	0	502	519
6	0	0	0	0	499	515
7	0	0	0	0	499	504
8	0	0	0	0	500	491
9	0	0	0	0	504	482
10	0	0	0	0	502	484
11	0	0	0	0	506	488
12	0	0	0	0	506	496
13	0	0	0	0	507	505
14	0	0	0	0	507	512
15	0	0	0	0	508	512
0	0	0	0	0	507	513
1	0	0	0	0	505	516
2	0	0	0	0	508	511
3	0	0	0	0	506	509
4	0	0	0	0	508	506
5	0	0	0	0	506	504
6	0	0	0	0	506	503
7	0	0	0	0	504	505
8	0	0	0	0	505	508
9	0	0	0	0	506	507
10	0	0	0	0	508	510
11	0	0	0	0	509	511
12	0	0	0	0	510	511
13	0	0	0	0	511	511
14	0	0	0	0	508	508
15	0	0	0	0	507	508
0	0	0	0	0	510	508
1	0	0	0	0	505	506
2	0	0	0	0	508	508
3	0	0	0	0	508	510
4	0	0	0	0	507	508
5	0	0	0	0	508	506
6	0	0	0	0	505	505
7	0	0	0	0	508	503
8	0	0	0	0	508	504
9	0	0	0	0	508	502
10	0	0	0	0	508	507
11	0	0	0	0	507	514
12	0	0	0	0	504	525
13	0	0	0	0	507	523
14	0	0	0	0	504	516
15	0	0	0	0	502	505
0	0	0	0	0	498	495
1	0	0	0	0	495	487
2	0	0	0	0	496	483
3	0	0	0	0	497	484
4	0	0	0	0	506	495
5	0	0	0	0	511	504
6	0	0	0	0	515	509
7	0	0	0	0	519	511
8	0	0	0	0	521	511
9	0	0	0	0	524	513
10	0	0	0	0	518	519
11	0	0	0	0	513	516
12	0	0	0	0	511	513
13	0	0	0	0	507	508
14	0	0	0	0	507	508
15	0	0	0	0	502	508
0	0	0	0	0	500	511
1	0	0	0	0	499	512
2	0	0	0	0	499	515
3	0	0	0	0	499	512
4	0	0	0	0	501	506
5	0	0	0	0	502	500
6	0	0	0	0	506	499
7	0	0	0	0	507	498
8	0	0	0	0	510	499
9	0	0	0	0	512	500
10	0	0	0	0	512	505
11	0	0	0	0	512	509
12	0	0	0	0	510	512
13	0	0	0	0	509	511
14	0	0	0	0	509	508
15	0	0	0	0	503	505
0	0	0	0	0	503	504
1	0	0	0	0	503	504
2	0	0	0	0	504	506
3	0	0	0	0	503	508
4	0	0	0	0	505	507
5	0	0	0	0	507	508
6	0	0	0	0	508	510
7	0	0	0	0	511	515
8	0	0	0	0	511	522
9	0	0	0	0	508	522
10	0	0	0	0	510	519
11	0	0	0	0	509	509
12	0	0	0	0	507	498
13	0	0	0	0	501	491
14	0	0	0	0	499	489
15	0	0	0	0	500	494
0	0	0	0	0	504	495
1	0	0	0	0	509	496
2	0	0	0	0	512	504
3	0	0	0	0	512	507
4	0	0	0	0	512	512
5	0	0	0	0	511	512
6	0	0	0	0	508	512
7	0	0	0	0	512	511
8	0	0	0	0	504	509
9	0	0	0	0	499	510
10	0	0	0	0	496	509
11	0	0	0	0	501	514
12	0	0	0	0	508	515
13	0	0	0	0	510	513
14	0	0	0	0	509	512
15	0	0	0	0	508	512
0	0	0	0	0	508	510
1	0	0	0	0	509	508
2	0	0	0	0	511	502
3	0	0	0	0	512	503
4	0	0	0	0	511	503
5	0	0	0	0	509	501
6	0	0	0	0	510	504
7	0	0	0	0	508	511
8	0	0	0	0	510	514
9	0	0	0	0	507	515
10	0	0	0	0	508	509
11	0	0	0	0	507	503
12	0	0	0	0	506	497
13	0	0	0	0	507	492
14	0	0	0	0	503	491
15	0	0	0	0	500	500
0	0	0	0	0	499	507
1	0	0	0	0	502	510
2	0	0	0	0	506	511
3	0	0	0	0	510	509
4	0	0	0	0	511	511
5	0	0	0	0	510	510
6	0	0	0	0	513	505
7	0	0	0	0	511	504
8	0	0	0	0	508	506
9	0	0	0	0	507	506
10	0	0	0	0	504	504
11	0	0	0	0	503	507
12	0	0	0	0	504	507
13	0	0	0	0	504	507
14	0	0	0	0	504	506
15	0	0	0	0	505	508
0	0	0	0	0	504	510
1	0	0	0	0	508	511
2	0	0	0	0	506	512
3	0	0	0	0	506	511
4	0	0	0	0	502	509
5	0	0	0	0	502	509
6	0	0	0	0	505	514
7	0	0	0	0	502	515
8	0	0	0	0	502	520
9	0	0	0	0	503	523
10	0	0	0	0	507	516
11	0	0	0	0	510	508
12	0	0	0	0	513	501
13	0	0	0	0	518	494
14	0	0	0	0	519	489
15	0	0	0	0	516	482
0	0	0	0	0	517	490
1	0	0	0	0	511	496
2	0	0	0	0	510	502
3	0	0	0	0	503	510
4	0	0	0	0	503	512
5	0	0	0	0	504	513
6	0	0	0	0	505	515
7	0	0	0	0	505	514
8	0	0	0	0	505	511
9	0	0	0	0	503	508
10	0	0	0	0	506	508
11	0	0	0	0	505	507
12	0	0	0	0	503	511
13	0	0	0	0	502	508
14	0	0	0	0	503	508
15	0	0	0	0	507	508
0	0	0	0	0	503	508
1	0	0	0	0	502	506
2	0	0	0	0	500	508
3	0	0	0	0	499	512
4	0	0	0	0	504	524
5	0	0	0	0	510	531
6	0	0	0	0	513	532
7	0	0	0	0	517	518
8	0	0	0	0	515	502
9	0	0	0	0	516	486
10	0	0	0	0	515	484
11	0	0	0	0	512	479
12	0	0	0	0	511	475
13	0	0	0	0	506	481
14	0	0	0	0	500	490
15	0	0	0	0	495	497
0	0	0	0	0	495	498
1	0	0	0	0	502	505
2	0	0	0	0	507	512
3	0	0	0	0	509	514
4	0	0	0	0	513	516
5	0	0	0	0	515	516
6	0	0	0	0	514	515
7	0	0	0	0	511	517
8	0	0	0	0	510	514
9	0	0	0	0	508	511
10	0	0	0	0	504	512
11	0	0	0	0	506	513
12	0	0	0	0	505	516
13	0	0	0	0	507	519
14	0	0	0	0	509	514
15	0	0	0	0	507	516
0	0	0	0	0	508	511
1	0	0	0	0	507	507
2	0	0	0	0	504	500
3	0	0	0	0	505	497
4	0	0	0	0	503	497
5	0	0	0	0	504	498
6	0	0	0	0	500	499
7	0	0	0	0	499	506
8	0	0	0	0	503	504
9	0	0	0	0	507	509
10	0	0	0	0	508	511
11	0	0	0	0	508	508
12	0	0	0	0	510	506
13	0	0	0	0	512	510
14	0	0	0	0	509	513
15	0	0	0	0	506	512
0	0	0	0	0	504	507
1	0	0	0	0	502	501
2	0	0	0	0	504	499
3	0	0	0	0	505	499
4	0	0	0	0	506	500
5	0	0	0	0	508	502
6	0	0	0	0	508	504
7	0	0	0	0	508	508
8	0	0	0	0	510	510
9	0	0	0	0	507	511
10	0	0	0	0	508	512
11	0	0	0	0	510	511
12	0	0	0	0	507	510
13	0	0	0	0	508	511
14	0	0	0	0	509	511
15	0	0	0	0	511	511
0	0	0	0	0	510	508
1	0	0	0	0	510	512
2	0	0	0	0	508	512
3	0	0	0	0	503	515
4	0	0	0	0	504	514
5	0	0	0	0	504	515
6	0	0	0	0	503	507
7	0	0	0	0	504	499
8	0	0	0	0	505	492
9	0	0	0	0	511	490
10	0	0	0	0	510	492
11	0	0	0	0	511	494
12	0	0	0	0	511	501
13	0	0	0	0	509	506
14	0	0	0	0	508	508
15	0	0	0	0	505	509
0	0	0	0	0	504	507
1	0	0	0	0	505	507
2	0	0	0	0	507	507
3	0	0	0	0	507	508
4	0	0	0	0	507	508
5	0	0	0	0	509	506
6	0	0	0	0	508	508
7	0	0	0	0	508	510
8	0	0	0	0	508	511
9	0	0	0	0	504	513
10	0	0	0	0	499	514
11	0	0	0	0	497	515
12	0	0	0	0	495	512
13	0	0	0	0	494	511
14	0	0	0	0	496	515
15	0	0	0	0	503	522
0	0	0	0	0	509	516
1	0	0	0	0	514	508
2	0	0	0	0	515	499
3	0	0	0	0	519	494
4	0	0	0	0	520	491
5	0	0	0	0	520	490
6	0	0	0	0	518	493
7	0	0	0	0	516	501
8	0	0	0	0	513	507
9	0	0	0	0	509	508
10	0	0	0	0	508	508
11	0	0	0	0	504	512
12	0	0	0	0	503	512
13	0	0	0	0	502	509
14	0	0	0	0	502	509
15	0	0	0	0	502	508
0	0	0	0	0	504	507
1	0	0	0	0	502	506
2	0	0	0	0	499	505
3	0	0	0	0	497	504
4	0	0	0	0	498	507
5	0	0	0	0	501	510
6	0	0	0	0	507	509
7	0	0	0	0	507	510
8	0	0	0	0	506	511
9	0	0	0	0	509	512
10	0	0	0	0	512	515
11	0	0	0	0	512	515
12	0	0	0	0	514	516
13	0	0	0	0	512	512
14	0	0	0	0	511	506
15	0	0	0	0	511	497
0	0	0	0	0	511	494
1	0	0	0	0	510	497
2	0	0	0	0	508	494
3	0	0	0	0	506	497
4	0	0	0	0	505	499
5	0	0	0	0	502	506
6	0	0	0	0	501	513
7	0	0	0	0	500	516
8	0	0	0	0	505	515
9	0	0	0	0	505	511
10	0	0	0	0	507	507
11	0	0	0	0	504	504
12	0	0	0	0	507	503
13	0	0	0	0	506	502
14	0	0	0	0	506	501
15	0	0	0	0	503	503
0	0	0	0	0	503	507
1	0	0	0	0	502	508
2	0	0	0	0	504	509
3	0	0	0	0	507	508
4	0	0	0	0	511	510
5	0	0	0	0	515	519
6	0	0	0	0	518	525
7	0	0	0	0	517	520
8	0	0	0	0	512	513
9	0	0	0	0	513	503
10	0	0	0	0	508	499
11	0	0	0	0	509	497
12	0	0	0	0	507	492
13	0	0	0	0	505	501
14	0	0	0	0	506	508
15	0	0	0	0	504	510
0	0	0	0	0	504	506
1	0	0	0	0	501	504
2	0	0	0	0	499	501
3	0	0	0	0	500	499
4	0	0	0	0	502	501
5	0	0	0	0	504	506
6	0	0	0	0	507	511
7	0	0	0	0	506	512
8	0	0	0	0	510	511
9	0	0	0	0	510	511
10	0	0	0	0	510	511
11	0	0	0	0	510	510
12	0	0	0	0	510	508
13	0	0	0	0	506	510
14	0	0	0	0	509	511
15	0	0	0	0	507	510
0	0	0	0	0	507	508
1	0	0	0	0	507	511
2	0	0	0	0	504	510
3	0	0	0	0	488	510
4	0	0	0	0	483	509
5	0	0	0	0	488	506
6	0	0	0	0	496	506
7	0	0	0	0	499	506
8	0	0	0	0	508	507
9	0	0	0	0	515	508
10	0	0	0	0	524	518
11	0	0	0	0	529	522
12	0	0	0	0	533	521
13	0	0	0	0	531	513
14	0	0	0	0	527	501
15	0	0	0	0	520	490
0	0	0	0	0	512	486
1	0	0	0	0	508	490
2	0	0	0	0	506	496
3	0	0	0	0	504	500
4	0	0	0	0	501	507
5	0	0	0	0	500	510
6	0	0	0	0	500	515
7	0	0	0	0	500	512
8	0	0	0	0	503	508
9	0	0	0	0	503	506
10	0	0	0	0	501	500
11	0	0	0	0	502	498
12	0	0	0	0	504	499
13	0	0	0	0	503	499
14	0	0	0	0	504	505
15	0	0	0	0	503	509
0	0	0	0	0	503	512
1	0	0	0	0	504	511
2	0	0	0	0	504	513
3	0	0	0	0	507	510
4	0	0	0	0	508	516
5	0	0	0	0	509	519
6	0	0	0	0	510	519
7	0	0	0	0	505	515
8	0	0	0	0	506	508
9	0	0	0	0	506	504
10	0	0	0	0	501	496
11	0	0	0	0	506	494
12	0	0	0	0	504	497
13	0	0	0	0	507	513
14	0	0	0	0	508	519
15	0	0	0	0	506	518
0	0	0	0	0	508	518
1	0	0	0	0	505	513
2	0	0	0	0	505	504
3	0	0	0	0	505	494
4	0	0	0	0	505	481
5	0	0	0	0	509	482
6	0	0	0	0	508	489
7	0	0	0	0	509	497
8	0	0	0	0	512	506
9	0	0	0	0	512	519
10	0	0	0	0	512	519
11	0	0	0	0	514	516
12	0	0	0	0	514	510
13	0	0	0	0	507	505
14	0	0	0	0	504	507
15	0	0	0	0	502	506
0	0	0	0	0	501	505
1	0	0	0	0	504	511
2	0	0	0	0	507	515
3	0	0	0	0	507	512
4	0	0	0	0	507	511
5	0	0	0	0	508	508
6	0	0	0	0	510	507
7	0	0	0	0	508	506
8	0	0	0	0	509	509
9	0	0	0	0	509	511
10	0	0	0	0	507	508
11	0	0	0	0	509	508
12	0	0	0	0	507	505
13	0	0	0	0	505	504
14	0	0	0	0	505	503
15	0	0	0	0	505	502
0	0	0	0	0	507	504
1	0	0	0	0	506	507
2	0	0	0	0	507	512
3	0	0	0	0	504	513
4	0	0	0	0	506	512
5	0	0	0	0	508	508
6	0	0	0	0	506	505
7	0	0	0	0	500	504
8	0	0	0	0	492	502
9	0	0	0	0	487	504
10	0	0	0	0	489	512
11	0	0	0	0	495	518
12	0	0	0	0	507	515
13	0	0	0	0	518	510
14	0	0	0	0	520	502
15	0	0	0	0	523	497
0	0	0	0	0	527	497
1	0	0	0	0	532	496
2	0	0	0	0	530	499
3	0	0	0	0	520	506
4	0	0	0	0	516	508
5	0	0	0	0	511	509
6	0	0	0	0	508	511
7	0	0	0	0	502	515
8	0	0	0	0	499	515
9	0	0	0	0	499	514
10	0	0	0	0	500	509
11	0	0	0	0	500	505
12	0	0	0	0	499	500
13	0	0	0	0	500	496
14	0	0	0	0	499	502
15	0	0	0	0	501	508
0	0	0	0	0	504	513
1	0	0	0	0	504	511
2	0	0	0	0	505	509
3	0	0	0	0	507	505
4	0	0	0	0	508	499
5	0	0	0	0	508	494
6	0	0	0	0	507	492
7	0	0	0	0	507	496
8	0	0	0	0	505	504
9	0	0	0	0	507	508
10	0	0	0	0	506	509
11	0	0	0	0	504	512
12	0	0	0	0	505	514
13	0	0	0	0	504	516
14	0	0	0	0	505	516
15	0	0	0	0	504	512
0	0	0	0	0	502	512
1	0	0	0	0	506	514
2	0	0	0	0	508	516
3	0	0	0	0	508	510
4	0	0	0	0	507	510
5	0	0	0	0	511	512
6	0	0	0	0	510	508
7	0	0	0	0	508	502
8	0	0	0	0	508	497
9	0	0	0	0	505	493
10	0	0	0	0	506	495
11	0	0	0	0	507	497
12	0	0	0	0	509	498
13	0	0	0	0	512	507
14	0	0	0	0	512	512
15	0	0	0	0	513	513
0	0	0	0	0	515	515
1	0	0	0	0	506	519
2	0	0	0	0	499	519
3	0	0	0	0	496	515
4	0	0	0	0	500	513
5	0	0	0	0	504	507
6	0	0	0	0	507	508
7	0	0	0	0	506	508
8	0	0	0	0	508	507
9	0	0	0	0	509	507
10	0	0	0	0	511	508
11	0	0	0	0	512	508
12	0	0	0	0	518	506
13	0	0	0	0	511	507
14	0	0	0	0	503	508
15	0	0	0	0	502	510
0	0	0	0	0	505	508
1	0	0	0	0	508	504
2	0	0	0	0	506	502
3	0	0	0	0	508	499
4	0	0	0	0	511	500
5	0	0	0	0	514	499
6	0	0	0	0	515	499
7	0	0	0	0	512	499
8	0	0	0	0	511	500
9	0	0	0	0	511	504
10	0	0	0	0	507	506
11	0	0	0	0	505	506
12	0	0	0	0	503	509
13	0	0	0	0	500	510
14	0	0	0	0	502	509
15	0	0	0	0	501	505
0	0	0	0	0	492	502
1	0	0	0	0	492	502
2	0	0	0	0	491	505
3	0	0	0	0	493	505
4	0	0	0	0	503	509
5	0	0	0	0	507	509
6	0	0	0	0	512	510
7	0	0	0	0	518	512
8	0	0	0	0	519	511
9	0	0	0	0	519	510
10	0	0	0	0	518	508
11	0	0	0	0	516	506
12	0	0	0	0	514	507
13	0	0	0	0	511	512
14	0	0	0	0	505	511
15	0	0	0	0	501	510
0	0	0	0	0	504	511
1	0	0	0	0	503	508
2	0	0	0	0	502	504
3	0	0	0	0	501	501
4	0	0	0	0	502	499
5	0	0	0	0	503	504
6	0	0	0	0	501	509
7	0	0	0	0	503	507
8	0	0	0	0	498	508
9	0	0	0	0	497	507
10	0	0	0	0	501	507
11	0	0	0	0	506	504
12	0	0	0	0	511	501
13	0	0	0	0	515	500
14	0	0	0	0	515	502
15	0	0	0	0	518	507
0	0	0	0	0	514	512
1	0	0	0	0	515	525
2	0	0	0	0	515	525
3	0	0	0	0	511	516
4	0	0	0	0	507	508
5	0	0	0	0	504	504
6	0	0	0	0	507	499
7	0	0	0	0	507	494
8	0	0	0	0	506	494
9	0	0	0	0	504	499
10	0	0	0	0	504	502
11	0	0	0	0	506	502
12	0	0	0	0	506	504
13	0	0	0	0	504	509
14	0	0	0	0	503	512
15	0	0	0	0	504	512
0	0	0	0	0	504	509
1	0	0	0	0	505	511
2	0	0	0	0	502	516
3	0	0	0	0	504	518
4	0	0	0	0	503	514
5	0	0	0	0	501	508
6	0	0	0	0	507	504
7	0	0	0	0	510	505
8	0	0	0	0	512	500
9	0	0	0	0	515	501
10	0	0	0	0	515	500
11	0	0	0	0	513	501
12	0	0	0	0	512	501
13	0	0	0	0	509	504
14	0	0	0	0	502	502
15	0	0	0	0	503	506
0	0	0	0	0	505	508
1	0	0	0	0	505	510
2	0	0	0	0	503	510
3	0	0	0	0	498	512
4	0	0	0	0	496	511
5	0	0	0	0	502	510
6	0	0	0	0	503	509
7	0	0	0	0	504	507
8	0	0	0	0	503	507
9	0	0	0	0	508	509
10	0	0	0	0	511	507
11	0	0	0	0	515	507
12	0	0	0	0	512	505
13	0	0	0	0	504	505
14	0	0	0	0	505	512
15	0	0	0	0	510	515
0	0	0	0	0	515	517
1	0	0	0	0	518	513
2	0	0	0	0	517	512
3	0	0	0	0	517	515
4	0	0	0	0	512	511
5	0	0	0	0	510	506
6	0	0	0	0	506	498
7	0	0	0	0	503	502
8	0	0	0	0	502	513
9	0	0	0	0	504	510
10	0	0	0	0	506	497
11	0	0	0	0	505	491
12	0	0	0	0	507	491
13	0	0	0	0	510	490
14	0	0	0	0	505	487
15	0	0	0	0	486	485
0	0	0	0	0	484	495
1	0	0	0	0	494	510
2	0	0	0	0	504	518
3	0	0	0	0	516	517
4	0	0	0	0	520	512
5	0	0	0	0	524	516
6	0	0	0	0	525	518
7	0	0	0	0	522	523
8	0	0	0	0	521	525
9	0	0	0	0	517	526
10	0	0	0	0	507	516
11	0	0	0	0	502	504
12	0	0	0	0	503	491
13	0	0	0	0	499	485
14	0	0	0	0	500	480
15	0	0	0	0	501	487
0	0	0	0	0	500	493
1	0	0	0	0	502	501
2	0	0	0	0	502	510
3	0	0	0	0	500	513
4	0	0	0	0	503	514
5	0	0	0	0	506	514
6	0	0	0	0	504	515
7	0	0	0	0	504	513
8	0	0	0	0	502	513
9	0	0	0	0	503	512
10	0	0	0	0	505	510
11	0	0	0	0	510	511
12	0	0	0	0	512	511
13	0	0	0	0	510	510
14	0	0	0	0	509	510
15	0	0	0	0	512	508
0	0	0	0	0	511	507
1	0	0	0	0	508	508
2	0	0	0	0	504	511
3	0	0	0	0	505	511
4	0	0	0	0	507	511
5	0	0	0	0	507	509
6	0	0	0	0	507	506
7	0	0	0	0	506	505
8	0	0	0	0	505	509
9	0	0	0	0	506	511
10	0	0	0	0	508	509
11	0	0	0	0	507	509
12	0	0	0	0	506	505
13	0	0	0	0	504	504
14	0	0	0	0	508	498
15	0	0	0	0	508	497
0	0	0	0	0	508	496
1	0	0	0	0	509	498
2	0	0	0	0	507	504
3	0	0	0	0	508	511
4	0	0	0	0	508	513
5	0	0	0	0	507	514
6	0	0	0	0	505	508
7	0	0	0	0	506	507
8	0	0	0	0	508	506
9	0	0	0	0	505	503
10	0	0	0	0	507	499
11	0	0	0	0	506	500
12	0	0	0	0	506	505
13	0	0	0	0	508	504
14	0	0	0	0	505	502
15	0	0	0	0	508	507
0	0	0	0	0	507	510
1	0	0	0	0	506	512
2	0	0	0	0	507	513
3	0	0	0	0	505	511
4	0	0	0	0	504	512
5	0	0	0	0	505	510
6	0	0	0	0	506	509
7	0	0	0	0	508	511
8	0	0	0	0	507	507
9	0	0	0	0	510	511
10	0	0	0	0	509	523
11	0	0	0	0	512	521
12	0	0	0	0	508	515
13	0	0	0	0	509	509
14	0	0	0	0	506	504
15	0	0	0	0	505	494
0	0	0	0	0	504	491
1	0	0	0	0	508	489
2	0	0	0	0	506	487
3	0	0	0	0	507	493
4	0	0	0	0	507	499
5	0	0	0	0	507	501
6	0	0	0	0	507	507
7	0	0	0	0	507	512
8	0	0	0	0	507	516
9	0	0	0	0	507	517
10	0	0	0	0	505	515
11	0	0	0	0	507	511
12	0	0	0	0	493	510
13	0	0	0	0	492	508
14	0	0	0	0	496	507
15	0	0	0	0	502	506
0	0	0	0	0	510	508
1	0	0	0	0	516	508
2	0	0	0	0	519	508
3	0	0	0	0	524	505
4	0	0	0	0	526	504
5	0	0	0	0	525	504
6	0	0	0	0	518	505
7	0	0	0	0	512	513
8	0	0	0	0	505	519
9	0	0	0	0	502	520
10	0	0	0	0	502	520
11	0	0	0	0	499	514
12	0	0	0	0	497	504
13	0	0	0	0	499	499
14	0	0	0	0	500	489
15	0	0	0	0	501	492
0	0	0	0	0	503	496
1	0	0	0	0	499	497
2	0	0	0	0	500	504
3	0	0	0	0	504	507
4	0	0	0	0	508	508
5	0	0	0	0	515	511
6	0	0	0	0	519	513
7	0	0	0	0	518	515
8	0	0	0	0	518	512
9	0	0	0	0	516	513
10	0	0	0	0	511	510
11	0	0	0	0	506	505
12	0	0	0	0	503	502
13	0	0	0	0	501	499
14	0	0	0	0	504	502
15	0	0	0	0	502	502
0	0	0	0	0	500	508
1	0	0	0	0	505	504
2	0	0	0	0	505	507
3	0	0	0	0	504	508
4	0	0	0	0	504	508
5	0	0	0	0	504	510
6	0	0	0	0	504	507
7	0	0	0	0	504	510
8	0	0	0	0	500	518
9	0	0	0	0	492	526
10	0	0	0	0	494	525
11	0	0	0	0	500	517
12	0	0	0	0	504	509
13	0	0	0	0	513	502
14	0	0	0	0	518	495
15	0	0	0	0	522	499
0	0	0	0	0	525	501
1	0	0	0	0	520	510
2	0	0	0	0	519	507
3	0	0	0	0	513	498
4	0	0	0	0	508	487
5	0	0	0	0	505	488
6	0	0	0	0	503	490
7	0	0	0	0	503	495
8	0	0	0	0	503	504
9	0	0	0	0	504	510
10	0	0	0	0	501	514
11	0	0	0	0	502	513
12	0	0	0	0	497	515
13	0	0	0	0	484	516
14	0	0	0	0	483	516
15	0	0	0	0	494	511
0	0	0	0	0	501	508
1	0	0	0	0	516	507
2	0	0	0	0	523	510
3	0	0	0	0	527	511
4	0	0	0	0	526	514
5	0	0	0	0	522	521
6	0	0	0	0	519	518
7	0	0	0	0	515	514
8	0	0	0	0	512	509
9	0	0	0	0	504	503
10	0	0	0	0	502	495
11	0	0	0	0	500	487
12	0	0	0	0	500	483
13	0	0	0	0	502	489
14	0	0	0	0	500	500
15	0	0	0	0	499	501
0	0	0	0	0	499	504
1	0	0	0	0	500	510
2	0	0	0	0	506	512
3	0	0	0	0	508	513
4	0	0	0	0	512	517
5	0	0	0	0	514	519
6	0	0	0	0	515	516
7	0	0	0	0	513	513
8	0	0	0	0	512	511
9	0	0	0	0	505	516
10	0	0	0	0	502	516
11	0	0	0	0	498	513
12	0	0	0	0	501	511
13	0	0	0	0	504	514
14	0	0	0	0	509	513
15	0	0	0	0	511	503
0	0	0	0	0	510	493
1	0	0	0	0	507	483
2	0	0	0	0	504	482
3	0	0	0	0	502	489
4	0	0	0	0	505	492
5	0	0	0	0	504	499
6	0	0	0	0	500	508
7	0	0	0	0	504	512
8	0	0	0	0	505	512
9	0	0	0	0	507	513
10	0	0	0	0	511	512
11	0	0	0	0	515	512
12	0	0	0	0	514	511
13	0	0	0	0	518	512
14	0	0	0	0	516	514
15	0	0	0	0	511	511
0	0	0	0	0	509	508
1	0	0	0	0	508	503
2	0	0	0	0	507	504
3	0	0	0	0	503	508
4	0	0	0	0	503	512
5	0	0	0	0	502	520
6	0	0	0	0	501	516
7	0	0	0	0	500	507
8	0	0	0	0	502	500
9	0	0	0	0	502	495
10	0	0	0	0	504	491
11	0	0	0	0	505	493
12	0	0	0	0	504	500
13	0	0	0	0	504	508
14	0	0	0	0	507	512
15	0	0	0	0	507	510
0	0	0	0	0	510	511
1	0	0	0	0	511	509
2	0	0	0	0	511	512
3	0	0	0	0	510	513
4	0	0	0	0	509	514
5	0	0	0	0	512	511
6	0	0	0	0	510	510
7	0	0	0	0	508	507
8	0	0	0	0	504	508
9	0	0	0	0	504	511
10	0	0	0	0	505	511
11	0	0	0	0	505	505
12	0	0	0	0	508	503
13	0	0	0	0	507	501
14	0	0	0	0	504	495
15	0	0	0	0	495	496
0	0	0	0	0	475	494
1	0	0	0	0	465	496
2	0	0	0	0	472	502
3	0	0	0	0	486	507
4	0	0	0	0	502	513
5	0	0	0	0	508	513
6	0	0	0	0	518	514
7	0	0	0	0	532	512
8	0	0	0	0	543	508
9	0	0	0	0	551	506
10	0	0	0	0	551	505
11	0	0	0	0	543	504
12	0	0	0	0	532	507
13	0	0	0	0	525	507
14	0	0	0	0	518	511
15	0	0	0	0	513	512
0	0	0	0	0	508	515
1	0	0	0	0	500	519
2	0	0	0	0	493	522
3	0	0	0	0	493	521
4	0	0	0	0	491	516
5	0	0	0	0	494	504
6	0	0	0	0	494	496
7	0	0	0	0	497	486
8	0	0	0	0	492	481
9	0	0	0	0	481	483
10	0	0	0	0	478	492
11	0	0	0	0	483	502
12	0	0	0	0	500	511
13	0	0	0	0	512	515
14	0	0	0	0	516	512
15	0	0	0	0	523	511
0	0	0	0	0	530	509
1	0	0	0	0	531	509
2	0	0	0	0	521	510
3	0	0	0	0	517	513
4	0	0	0	0	510	515
5	0	0	0	0	505	514
6	0	0	0	0	500	511
7	0	0	0	0	498	505
8	0	0	0	0	497	503
9	0	0	0	0	499	504
10	0	0	0	0	502	507
11	0	0	0	0	503	515
12	0	0	0	0	502	522
13	0	0	0	0	505	524
14	0	0	0	0	506	515
15	0	0	0	0	505	499
0	0	0	0	0	504	490
1	0	0	0	0	504	480
2	0	0	0	0	504	479
3	0	0	0	0	507	486
4	0	0	0	0	505	492
5	0	0	0	0	507	500
6	0	0	0	0	509	512
7	0	0	0	0	511	515
8	0	0	0	0	511	517
9	0	0	0	0	510	514
10	0	0	0	0	509	514
11	0	0	0	0	511	514
12	0	0	0	0	508	511
13	0	0	0	0	505	512
14	0	0	0	0	504	512
15	0	0	0	0	504	513
0	0	0	0	0	504	518
1	0	0	0	0	508	516
2	0	0	0	0	507	515
3	0	0	0	0	505	512
4	0	0	0	0	506	504
5	0	0	0	0	508	501
6	0	0	0	0	508	499
7	0	0	0	0	508	498
8	0	0	0	0	505	500
9	0	0	0	0	502	506
10	0	0	0	0	501	508
11	0	0	0	0	498	507
12	0	0	0	0	504	506
13	0	0	0	0	508	508
14	0	0	0	0	513	515
15	0	0	0	0	518	524
0	0	0	0	0	519	522
1	0	0	0	0	517	513
2	0	0	0	0	512	502
3	0	0	0	0	510	490
4	0	0	0	0	508	484
5	0	0	0	0	506	484
6	0	0	0	0	505	489
7	0	0	0	0	507	496
8	0	0	0	0	506	506
9	0	0	0	0	502	512
10	0	0	0	0	492	513
11	0	0	0	0	483	511
12	0	0	0	0	483	508
13	0	0	0	0	479	510
14	0	0	0	0	442	513
15	0	0	0	0	387	511
0	0	0	0	0	399	511
1	0	0	0	0	463	512
2	0	0	0	0	535	511
3	0	0	0	0	596	511
4	0	0	0	0	632	515
5	0	0	0	0	645	518
6	0	0	0	0	636	513
7	0	0	0	0	612	511
8	0	0	0	0	593	504
9	0	0	0	0	560	501
10	0	0	0	0	512	500
11	0	0	0	0	482	496
12	0	0	0	0	471	499
13	0	0	0	0	467	503
14	0	0	0	0	469	506
15	0	0	0	0	474	509
0	0	0	0	0	477	507
1	0	0	0	0	479	505
2	0	0	0	0	483	509
3	0	0	0	0	486	512
4	0	0	0	0	487	511
5	0	0	0	0	492	513
6	0	0	0	0	493	512
7	0	0	0	0	496	506
8	0	0	0	0	497	503
9	0	0	0	0	501	504
10	0	0	0	0	501	505
11	0	0	0	0	504	506
12	0	0	0	0	504	509
13	0	0	0	0	501	508
14	0	0	0	0	502	508
15	0	0	0	0	505	504
0	0	0	0	0	504	507
1	0	0	0	0	505	515
2	0	0	0	0	506	510
3	0	0	0	0	504	507
4	0	0	0	0	507	503
5	0	0	0	0	507	503
6	0	0	0	0	506	502
7	0	0	0	0	504	503
8	0	0	0	0	508	502
9	0	0	0	0	509	503
10	0	0	0	0	509	501
11	0	0	0	0	511	503
12	0	0	0	0	510	508
13	0	0	0	0	510	512
14	0	0	0	0	510	510
15	0	0	0	0	509	509
0	0	0	0	0	510	505
1	0	0	0	0	506	504
2	0	0	0	0	507	509
3	0	0	0	0	504	508
4	0	0	0	0	507	504
5	0	0	0	0	506	504
6	0	0	0	0	505	505
7	0	0	0	0	506	505
8	0	0	0	0	507	505
9	0	0	0	0	509	507
10	0	0	0	0	509	507
11	0	0	0	0	508	512
12	0	0	0	0	511	513
13	0	0	0	0	511	509
14	0	0	0	0	510	512
15	0	0	0	0	507	516
0	0	0	0	0	504	521
1	0	0	0	0	507	518
2	0	0	0	0	506	511
3	0	0	0	0	503	504
4	0	0	0	0	503	497
5	0	0	0	0	506	493
6	0	0	0	0	508	492
7	0	0	0	0	511	496
8	0	0	0	0	511	499
9	0	0	0	0	509	504
10	0	0	0	0	510	506
11	0	0	0	0	509	507
12	0	0	0	0	507	509
13	0	0	0	0	508	511
14	0	0	0	0	507	515
15	0	0	0	0	506	514
0	0	0	0	0	508	511
1	0	0	0	0	511	511
2	0	0	0	0	506	510
3	0	0	0	0	502	512
4	0	0	0	0	491	516
5	0	0	0	0	480	516
6	0	0	0	0	476	510
7	0	0	0	0	487	501
8	0	0	0	0	499	497
9	0	0	0	0	512	494
10	0	0	0	0	526	495
11	0	0	0	0	536	492
12	0	0	0	0	543	505
13	0	0	0	0	544	507
14	0	0	0	0	538	509
15	0	0	0	0	529	507
0	0	0	0	0	516	509
1	0	0	0	0	510	510
2	0	0	0	0	507	508
3	0	0	0	0	502	509
4	0	0	0	0	500	508
5	0	0	0	0	496	508
6	0	0	0	0	497	512
7	0	0	0	0	497	512
8	0	0	0	0	498	507
9	0	0	0	0	499	508
10	0	0	0	0	499	508
11	0	0	0	0	503	506
12	0	0	0	0	502	507
13	0	0	0	0	504	515
14	0	0	0	0	505	520
15	0	0	0	0	504	519
0	0	0	0	0	508	518
1	0	0	0	0	508	509
2	0	0	0	0	505	512
3	0	0	0	0	505	509
4	0	0	0	0	506	496
5	0	0	0	0	505	485
6	0	0	0	0	503	485
7	0	0	0	0	506	489
8	0	0	0	0	508	497
9	0	0	0	0	503	503
10	0	0	0	0	503	504
11	0	0	0	0	505	507
12	0	0	0	0	506	508
13	0	0	0	0	507	509
14	0	0	0	0	508	508
15	0	0	0	0	510	515
0	0	0	0	0	510	516
1	0	0	0	0	513	517
2	0	0	0	0	512	515
3	0	0	0	0	511	521
4	0	0	0	0	510	523
5	0	0	0	0	507	515
6	0	0	0	0	505	504
7	0	0	0	0	505	499
8	0	0	0	0	505	489
9	0	0	0	0	507	488
10	0	0	0	0	505	490
11	0	0	0	0	504	496
12	0	0	0	0	500	501
13	0	0	0	0	490	505
14	0	0	0	0	491	510
15	0	0	0	0	497	513
0	0	0	0	0	499	515
1	0	0	0	0	508	515
2	0	0	0	0	514	510
3	0	0	0	0	524	506
4	0	0	0	0	530	504
5	0	0	0	0	534	504
6	0	0	0	0	529	506
7	0	0	0	0	521	505
8	0	0	0	0	519	508
9	0	0	0	0	510	509
10	0	0	0	0	504	511
11	0	0	0	0	505	511
12	0	0	0	0	499	508
13	0	0	0	0	500	510
14	0	0	0	0	498	508
15	0	0	0	0	499	515
0	0	0	0	0	502	512
1	0	0	0	0	501	509
2	0	0	0	0	496	506
3	0	0	0	0	494	507
4	0	0	0	0	495	504
5	0	0	0	0	504	504
6	0	0	0	0	505	504
7	0	0	0	0	507	503
8	0	0	0	0	499	505
9	0	0	0	0	489	506
10	0	0	0	0	495	504
11	0	0	0	0	507	502
12	0	0	0	0	515	501
13	0	0	0	0	523	499
14	0	0	0	0	526	500
15	0	0	0	0	529	502
0	0	0	0	0	527	504
1	0	0	0	0	525	508
2	0	0	0	0	515	511
3	0	0	0	0	501	514
4	0	0	0	0	496	514
5	0	0	0	0	497	513
6	0	0	0	0	501	511
7	0	0	0	0	504	504
8	0	0	0	0	504	504
9	0	0	0	0	508	507
10	0	0	0	0	508	512
11	0	0	0	0	508	517
12	0	0	0	0	504	515
13	0	0	0	0	506	509
14	0	0	0	0	505	506
15	0	0	0	0	504	500
0	0	0	0	0	496	495
1	0	0	0	0	492	497
2	0	0	0	0	490	500
3	0	0	0	0	494	504
4	0	0	0	0	499	505
5	0	0	0	0	503	508
6	0	0	0	0	509	508
7	0	0	0	0	515	513
8	0	0	0	0	521	513
9	0	0	0	0	524	516
10	0	0	0	0	523	518
11	0	0	0	0	519	520
12	0	0	0	0	519	513
13	0	0	0	0	515	507
14	0	0	0	0	513	508
15	0	0	0	0	506	508
0	0	0	0	0	503	504
1	0	0	0	0	504	500
2	0	0	0	0	496	499
3	0	0	0	0	487	498
4	0	0	0	0	489	498
5	0	0	0	0	490	500
6	0	0	0	0	492	507
7	0	0	0	0	493	506
8	0	0	0	0	478	508
9	0	0	0	0	479	507
10	0	0	0	0	494	505
11	0	0	0	0	516	506
12	0	0	0	0	531	512
13	0	0	0	0	539	513
14	0	0	0	0	544	512
15	0	0	0	0	549	510
0	0	0	0	0	547	508
1	0	0	0	0	541	503
2	0	0	0	0	528	499
3	0	0	0	0	512	494
4	0	0	0	0	499	497
5	0	0	0	0	496	501
6	0	0	0	0	492	503
7	0	0	0	0	494	502
8	0	0	0	0	494	505
9	0	0	0	0	497	506
10	0	0	0	0	496	506
11	0	0	0	0	498	508
12	0	0	0	0	499	511
13	0	0	0	0	498	519
14	0	0	0	0	493	525
15	0	0	0	0	492	526
0	0	0	0	0	498	519
1	0	0	0	0	504	508
2	0	0	0	0	508	500
3	0	0	0	0	512	494
4	0	0	0	0	513	491
5	0	0	0	0	515	488
6	0	0	0	0	515	493
7	0	0	0	0	513	500
8	0	0	0	0	508	504
9	0	0	0	0	503	507
10	0	0	0	0	505	510
11	0	0	0	0	507	505
12	0	0	0	0	507	511
13	0	0	0	0	506	507
14	0	0	0	0	508	512
15	0	0	0	0	506	511
0	0	0	0	0	504	511
1	0	0	0	0	504	513
2	0	0	0	0	503	512
3	0	0	0	0	499	511
4	0	0	0	0	499	510
5	0	0	0	0	504	511
6	0	0	0	0	509	509
7	0	0	0	0	515	509
8	0	0	0	0	516	507
9	0	0	0	0	518	505
10	0	0	0	0	518	508
11	0	0	0	0	518	507
12	0	0	0	0	512	507
13	0	0	0	0	507	508
14	0	0	0	0	504	511
15	0	0	0	0	505	510
0	0	0	0	0	502	510
1	0	0	0	0	503	510
2	0	0	0	0	501	508
3	0	0	0	0	501	511
4	0	0	0	0	502	512
5	0	0	0	0	500	514
6	0	0	0	0	501	507
7	0	0	0	0	504	505
8	0	0	0	0	503	508
9	0	0	0	0	504	505
10	0	0	0	0	504	502
11	0	0	0	0	507	497
12	0	0	0	0	510	494
13	0	0	0	0	507	496
14	0	0	0	0	508	507
15	0	0	0	0	512	515
0	0	0	0	0	517	519
1	0	0	0	0	517	516
2	0	0	0	0	516	512
3	0	0	0	0	509	504
4	0	0	0	0	508	496
5	0	0	0	0	509	489
6	0	0	0	0	507	493
7	0	0	0	0	508	493
8	0	0	0	0	507	496
9	0	0	0	0	508	500
10	0	0	0	0	507	503
11	0	0	0	0	508	507
12	0	0	0	0	507	509
13	0	0	0	0	507	510
14	0	0	0	0	505	511
15	0	0	0	0	504	513
0	0	0	0	0	506	513
1	0	0	0	0	506	513
2	0	0	0	0	505	513
3	0	0	0	0	504	512
4	0	0	0	0	500	512
5	0	0	0	0	499	511
6	0	0	0	0	504	509
7	0	0	0	0	504	506
8	0	0	0	0	510	507
9	0	0	0	0	512	510
10	0	0	0	0	511	508
11	0	0	0	0	513	510
12	0	0	0	0	511	509
13	0	0	0	0	509	512
14	0	0	0	0	508	519
15	0	0	0	0	505	515
0	0	0	0	0	507	508
1	0	0	0	0	506	507
2	0	0	0	0	503	508
3	0	0	0	0	506	503
4	0	0	0	0	504	499
5	0	0	0	0	507	500
6	0	0	0	0	503	499
7	0	0	0	0	503	499
8	0	0	0	0	506	499
9	0	0	0	0	508	498
10	0	0	0	0	508	500
11	0	0	0	0	509	504
12	0	0	0	0	507	507
13	0	0	0	0	502	504
14	0	0	0	0	504	509
15	0	0	0	0	509	509
0	0	0	0	0	505	508
1	0	0	0	0	497	510
2	0	0	0	0	500	509
3	0	0	0	0	505	510
4	0	0	0	0	514	510
5	0	0	0	0	517	510
6	0	0	0	0	520	509
7	0	0	0	0	520	511
8	0	0	0	0	518	510
9	0	0	0	0	517	510
10	0	0	0	0	510	509
11	0	0	0	0	504	506
12	0	0	0	0	501	508
13	0	0	0	0	502	508
14	0	0	0	0	499	511
15	0	0	0	0	497	505
0	0	0	0	0	496	506
1	0	0	0	0	488	510
2	0	0	0	0	488	509
3	0	0	0	0	488	504
4	0	0	0	0	494	502
5	0	0	0	0	504	503
6	0	0	0	0	514	504
7	0	0	0	0	523	505
8	0	0	0	0	531	511
9	0	0	0	0	535	515
10	0	0	0	0	535	515
11	0	0	0	0	527	512
12	0	0	0	0	523	505
13	0	0	0	0	514	502
14	0	0	0	0	504	503
15	0	0	0	0	499	500
0	0	0	0	0	497	497
1	0	0	0	0	497	500
2	0	0	0	0	498	503
3	0	0	0	0	499	506
4	0	0	0	0	502	512
5	0	0	0	0	503	517
6	0	0	0	0	502	524
7	0	0	0	0	502	519
8	0	0	0	0	502	510
9	0	0	0	0	504	502
10	0	0	0	0	502	492
11	0	0	0	0	499	487
12	0	0	0	0	497	491
13	0	0	0	0	498	497
14	0	0	0	0	499	505
15	0	0	0	0	506	510
0	0	0	0	0	508	512
1	0	0	0	0	511	515
2	0	0	0	0	514	512
3	0	0	0	0	515	513
4	0	0	0	0	512	512
5	0	0	0	0	508	510
6	0	0	0	0	508	510
7	0	0	0	0	509	504
8	0	0	0	0	510	502
9	0	0	0	0	508	505
10	0	0	0	0	509	504
11	0	0	0	0	512	500
12	0	0	0	0	512	501
13	0	0	0	0	508	504
14	0	0	0	0	506	507
15	0	0	0	0	508	511
0	0	0	0	0	507	511
1	0	0	0	0	505	512
2	0	0	0	0	507	512
3	0	0	0	0	506	511
4	0	0	0	0	505	508
5	0	0	0	0	500	504
6	0	0	0	0	499	502
7	0	0	0	0	497	502
8	0	0	0	0	497	504
9	0	0	0	0	501	504
10	0	0	0	0	508	510
11	0	0	0	0	512	513
12	0	0	0	0	514	512
13	0	0	0	0	513	509
14	0	0	0	0	508	507
15	0	0	0	0	509	504
0	0	0	0	0	510	502
1	0	0	0	0	512	504
2	0	0	0	0	509	504
3	0	0	0	0	508	506
4	0	0	0	0	509	508
5	0	0	0	0	511	508
6	0	0	0	0	509	509
7	0	0	0	0	507	508
8	0	0	0	0	505	514
9	0	0	0	0	507	515
10	0	0	0	0	503	511
11	0	0	0	0	499	510
12	0	0	0	0	498	507
13	0	0	0	0	486	505
14	0	0	0	0	471	502
15	0	0	0	0	482	504
0	0	0	0	0	495	510
1	0	0	0	0	505	511
2	0	0	0	0	518	510
3	0	0	0	0	528	505
4	0	0	0	0	533	501
5	0	0	0	0	540	500
6	0	0	0	0	543	500
7	0	0	0	0	535	508
8	0	0	0	0	526	511
9	0	0	0	0	519	515
10	0	0	0	0	509	514
11	0	0	0	0	502	510
12	0	0	0	0	498	503
13	0	0	0	0	500	498
14	0	0	0	0	500	496
15	0	0	0	0	500	498
0	0	0	0	0	498	499
1	0	0	0	0	497	508
2	0	0	0	0	499	514
3	0	0	0	0	500	515
4	0	0	0	0	500	510
5	0	0	0	0	501	506
6	0	0	0	0	503	505
7	0	0	0	0	503	504
8	0	0	0	0	501	504
9	0	0	0	0	504	503
10	0	0	0	0	503	502
11	0	0	0	0	504	500
12	0	0	0	0	506	503
13	0	0	0	0	506	502
14	0	0	0	0	507	508
15	0	0	0	0	508	513
0	0	0	0	0	507	515
1	0	0	0	0	510	518
2	0	0	0	0	511	515
3	0	0	0	0	508	510
4	0	0	0	0	508	506
5	0	0	0	0	509	505
6	0	0	0	0	511	503
7	0	0	0	0	510	498
8	0	0	0	0	508	502
9	0	0	0	0	504	509
10	0	0	0	0	504	509
11	0	0	0	0	497	510
12	0	0	0	0	498	510
13	0	0	0	0	500	509
14	0	0	0	0	504	508
15	0	0	0	0	507	511
0	0	0	0	0	509	510
1	0	0	0	0	511	513
2	0	0	0	0	515	515
3	0	0	0	0	513	508
4	0	0	0	0	513	508
5	0	0	0	0	513	500
6	0	0	0	0	511	494
7	0	0	0	0	510	496
8	0	0	0	0	505	500
9	0	0	0	0	507	503
10	0	0	0	0	505	505
11	0	0	0	0	508	509
12	0	0	0	0	510	508
13	0	0	0	0	509	511
14	0	0	0	0	508	511
15	0	0	0	0	510	510
0	0	0	0	0	511	511
1	0	0	0	0	509	516
2	0	0	0	0	506	514
3	0	0	0	0	505	514
4	0	0	0	0	506	510
5	0	0	0	0	503	512
6	0	0	0	0	503	511
7	0	0	0	0	504	507
8	0	0	0	0	505	505
9	0	0	0	0	505	501
10	0	0	0	0	506	497
11	0	0	0	0	504	495
12	0	0	0	0	503	494
13	0	0	0	0	502	498
14	0	0	0	0	486	507
15	0	0	0	0	476	513
0	0	0	0	0	475	512
1	0	0	0	0	486	508
2	0	0	0	0	499	509
3	0	0	0	0	520	507
4	0	0	0	0	532	504
5	0	0	0	0	541	502
6	0	0	0	0	545	501
7	0	0	0	0	548	504
8	0	0	0	0	542	508
9	0	0	0	0	527	510
10	0	0	0	0	516	509
11	0	0	0	0	503	508
12	0	0	0	0	499	508
13	0	0	0	0	494	508
14	0	0	0	0	487	511
15	0	0	0	0	472	513
0	0	0	0	0	457	510
1	0	0	0	0	451	513
2	0	0	0	0	472	514
3	0	0	0	0	499	518
4	0	0	0	0	504	518
5	0	0	0	0	514	513
6	0	0	0	0	533	510
7	0	0	0	0	550	504
8	0	0	0	0	560	498
9	0	0	0	0	562	493
10	0	0	0	0	550	487
11	0	0	0	0	535	487
12	0	0	0	0	526	493
13	0	0	0	0	516	502
14	0	0	0	0	504	506
15	0	0	0	0	494	508
0	0	0	0	0	489	509
1	0	0	0	0	489	512
2	0	0	0	0	488	511
3	0	0	0	0	486	511
4	0	0	0	0	465	509
5	0	0	0	0	449	511
6	0	0	0	0	454	510
7	0	0	0	0	468	510
8	0	0	0	0	481	511
9	0	0	0	0	496	513
10	0	0	0	0	519	517
11	0	0	0	0	543	520
12	0	0	0	0	558	514
13	0	0	0	0	563	504
14	0	0	0	0	560	498
15	0	0	0	0	549	494
0	0	0	0	0	535	497
1	0	0	0	0	518	499
2	0	0	0	0	504	501
3	0	0	0	0	498	510
4	0	0	0	0	489	511
5	0	0	0	0	488	515
6	0	0	0	0	491	521
7	0	0	0	0	489	521
8	0	0	0	0	494	517
9	0	0	0	0	499	512
10	0	0	0	0	502	504
11	0	0	0	0	502	495
12	0	0	0	0	500	489
13	0	0	0	0	498	489
14	0	0	0	0	500	490
15	0	0	0	0	502	496
0	0	0	0	0	501	497
1	0	0	0	0	502	507
2	0	0	0	0	506	511
3	0	0	0	0	509	513
4	0	0	0	0	512	511
5	0	0	0	0	513	511
6	0	0	0	0	515	512
7	0	0	0	0	515	511
8	0	0	0	0	513	508
9	0	0	0	0	509	506
10	0	0	0	0	507	507
11	0	0	0	0	500	507
12	0	0	0	0	503	507
13	0	0	0	0	502	512
14	0	0	0	0	506	520
15	0	0	0	0	505	516
0	0	0	0	0	505	508
1	0	0	0	0	503	502
2	0	0	0	0	506	501
3	0	0	0	0	504	499
4	0	0	0	0	503	498
5	0	0	0	0	504	500
6	0	0	0	0	506	506
7	0	0	0	0	503	511
8	0	0	0	0	505	511
9	0	0	0	0	507	512
10	0	0	0	0	507	514
11	0	0	0	0	508	511
12	0	0	0	0	512	511
13	0	0	0	0	511	508
14	0	0	0	0	508	507
15	0	0	0	0	509	507
0	0	0	0	0	511	503
1	0	0	0	0	510	503
2	0	0	0	0	509	504
3	0	0	0	0	509	501
4	0	0	0	0	508	502
5	0	0	0	0	507	503
6	0	0	0	0	507	505
7	0	0	0	0	503	508
8	0	0	0	0	494	508
9	0	0	0	0	477	507
10	0	0	0	0	462	508
11	0	0	0	0	458	508
12	0	0	0	0	480	506
13	0	0	0	0	507	507
14	0	0	0	0	534	511
15	0	0	0	0	553	510
0	0	0	0	0	565	509
1	0	0	0	0	566	511
2	0	0	0	0	560	509
3	0	0	0	0	543	508
4	0	0	0	0	526	509
5	0	0	0	0	509	508
6	0	0	0	0	498	506
7	0	0	0	0	493	505
8	0	0	0	0	492	507
9	0	0	0	0	489	508
10	0	0	0	0	488	505
11	0	0	0	0	486	505
12	0	0	0	0	467	504
13	0	0	0	0	462	505
14	0	0	0	0	476	504
15	0	0	0	0	497	505
0	0	0	0	0	513	505
1	0	0	0	0	528	506
2	0	0	0	0	535	508
3	0	0	0	0	536	506
4	0	0	0	0	531	508
5	0	0	0	0	530	510
6	0	0	0	0	524	510
7	0	0	0	0	510	508
8	0	0	0	0	501	508
9	0	0	0	0	497	509
10	0	0	0	0	496	510
11	0	0	0	0	496	511
12	0	0	0	0	499	510
13	0	0	0	0	499	511
14	0	0	0	0	500	508
15	0	0	0	0	501	508
0	0	0	0	0	503	508
1	0	0	0	0	502	509
2	0	0	0	0	499	511
3	0	0	0	0	498	510
4	0	0	0	0	496	508
5	0	0	0	0	499	510
6	0	0	0	0	504	507
7	0	0	0	0	508	501
8	0	0	0	0	512	500
9	0	0	0	0	514	498
10	0	0	0	0	517	492
11	0	0	0	0	520	495
12	0	0	0	0	518	494
13	0	0	0	0	518	496
14	0	0	0	0	511	500
15	0	0	0	0	508	503
0	0	0	0	0	507	508
1	0	0	0	0	503	513
2	0	0	0	0	500	513
