# OpenSignals Text File Format. Version 1
# {"98:D3:11:FE:05:A2": {"position": 0, "device": "bitalino_rev", "device name": "98:D3:11:FE:05:A2", "device connection": "BTH98:D3:11:FE:05:A2", "sampling rate": 1000, "resolution": [4, 1, 1, 1, 1, 10, 10], "firmware version": 1282, "comments": "", "keywords": "", "mode": 0, "sync interval": 2, "date": "2026-6-12", "time": "15:28:45.712", "channels": [1, 2], "sensor": ["EMGBITREV", "EMGBITREV"], "label": ["A1", "A2"], "column": ["nSeq", "I1", "I2", "O1", "O2", "A1", "A2"], "special": [{}, {}], "digital IO": [0, 0, 1, 1]}}
# EndOfHeader
0	0	0	0	0	506	507
1	0	0	0	0	507	508
2	0	0	0	0	507	507
3	0	0	0	0	508	503
4	0	0	0	0	508	503
5	0	0	0	0	508	503
6	0	0	0	0	506	501
7	0	0	0	0	507	505
8	0	0	0	0	506	507
9	0	0	0	0	509	507
10	0	0	0	0	508	511
11	0	0	0	0	505	512
12	0	0	0	0	505	512
13	0	0	0	0	507	509
14	0	0	0	0	508	505
15	0	0	0	0	506	503
0	0	0	0	0	504	501
1	0	0	0	0	507	503
2	0	0	0	0	504	504
3	0	0	0	0	503	508
4	0	0	0	0	504	511
5	0	0	0	0	507	512
6	0	0	0	0	508	514
7	0	0	0	0	508	514
8	0	0	0	0	507	513
9	0	0	0	0	510	510
10	0	0	0	0	508	504
11	0	0	0	0	510	499
12	0	0	0	0	507	499
13	0	0	0	0	509	495
14	0	0	0	0	509	497
15	0	0	0	0	506	500
0	0	0	0	0	507	505
1	0	0	0	0	505	511
2	0	0	0	0	507	511
3	0	0	0	0	505	511
4	0	0	0	0	506	513
5	0	0	0	0	504	512
6	0	0	0	0	505	510
7	0	0	0	0	506	504
8	0	0	0	0	506	501
9	0	0	0	0	510	501
10	0	0	0	0	509	505
11	0	0	0	0	507	508
12	0	0	0	0	511	511
13	0	0	0	0	512	512
14	0	0	0	0	513	511
15	0	0	0	0	513	510
0	0	0	0	0	512	505
1	0	0	0	0	509	502
2	0	0	0	0	506	500
3	0	0	0	0	506	504
4	0	0	0	0	506	506
5	0	0	0	0	503	507
6	0	0	0	0	504	505
7	0	0	0	0	502	501
8	0	0	0	0	506	499
9	0	0	0	0	504	498
10	0	0	0	0	504	500
11	0	0	0	0	503	505
12	0	0	0	0	504	509
13	0	0	0	0	506	508
14	0	0	0	0	506	508
15	0	0	0	0	507	511
0	0	0	0	0	506	511
1	0	0	0	0	507	512
2	0	0	0	0	505	511
3	0	0	0	0	504	519
4	0	0	0	0	506	523
5	0	0	0	0	508	519
6	0	0	0	0	507	513
7	0	0	0	0	508	509
8	0	0	0	0	508	502
9	0	0	0	0	504	496
10	0	0	0	0	504	491
11	0	0	0	0	505	498
12	0	0	0	0	506	500
13	0	0	0	0	505	506
14	0	0	0	0	509	511
15	0	0	0	0	511	512
0	0	0	0	0	510	520
1	0	0	0	0	507	527
2	0	0	0	0	509	523
3	0	0	0	0	509	515
4	0	0	0	0	509	513
5	0	0	0	0	508	506
6	0	0	0	0	508	501
7	0	0	0	0	506	497
8	0	0	0	0	506	503
9	0	0	0	0	504	509
10	0	0	0	0	506	510
11	0	0	0	0	505	511
12	0	0	0	0	505	516
13	0	0	0	0	506	515
14	0	0	0	0	510	508
15	0	0	0	0	508	499
0	0	0	0	0	507	489
1	0	0	0	0	507	487
2	0	0	0	0	509	479
3	0	0	0	0	508	481
4	0	0	0	0	505	486
5	0	0	0	0	507	494
6	0	0	0	0	506	505
7	0	0	0	0	507	511
8	0	0	0	0	508	513
9	0	0	0	0	509	519
10	0	0	0	0	508	517
11	0	0	0	0	511	516
12	0	0	0	0	511	508
13	0	0	0	0	509	505
14	0	0	0	0	508	504
15	0	0	0	0	506	508
0	0	0	0	0	510	508
1	0	0	0	0	506	507
2	0	0	0	0	506	510
3	0	0	0	0	505	510
4	0	0	0	0	505	513
5	0	0	0	0	505	515
6	0	0	0	0	502	512
7	0	0	0	0	502	510
8	0	0	0	0	502	508
9	0	0	0	0	506	508
10	0	0	0	0	508	506
11	0	0	0	0	509	507
12	0	0	0	0	510	507
13	0	0	0	0	510	507
14	0	0	0	0	510	509
15	0	0	0	0	509	511
0	0	0	0	0	510	509
1	0	0	0	0	509	509
2	0	0	0	0	505	508
3	0	0	0	0	506	507
4	0	0	0	0	506	508
5	0	0	0	0	505	508
6	0	0	0	0	508	508
7	0	0	0	0	508	507
8	0	0	0	0	509	507
9	0	0	0	0	507	501
10	0	0	0	0	508	500
11	0	0	0	0	510	496
12	0	0	0	0	508	495
13	0	0	0	0	504	497
14	0	0	0	0	504	500
15	0	0	0	0	506	504
0	0	0	0	0	507	509
1	0	0	0	0	507	512
2	0	0	0	0	506	514
3	0	0	0	0	506	514
4	0	0	0	0	505	512
5	0	0	0	0	505	513
6	0	0	0	0	504	515
7	0	0	0	0	505	514
8	0	0	0	0	508	509
9	0	0	0	0	506	507
10	0	0	0	0	509	505
11	0	0	0	0	507	504
12	0	0	0	0	504	511
13	0	0	0	0	504	513
14	0	0	0	0	504	512
15	0	0	0	0	506	505
0	0	0	0	0	505	499
1	0	0	0	0	507	499
2	0	0	0	0	510	506
3	0	0	0	0	509	504
4	0	0	0	0	509	505
5	0	0	0	0	507	504
6	0	0	0	0	506	501
7	0	0	0	0	508	499
8	0	0	0	0	505	496
9	0	0	0	0	505	493
10	0	0	0	0	507	497
11	0	0	0	0	509	501
12	0	0	0	0	507	509
13	0	0	0	0	509	513
14	0	0	0	0	505	514
15	0	0	0	0	508	513
0	0	0	0	0	508	512
1	0	0	0	0	509	513
2	0	0	0	0	507	515
3	0	0	0	0	509	519
4	0	0	0	0	505	519
5	0	0	0	0	506	520
6	0	0	0	0	506	527
7	0	0	0	0	504	524
8	0	0	0	0	503	514
9	0	0	0	0	505	500
10	0	0	0	0	507	493
11	0	0	0	0	509	486
12	0	0	0	0	508	481
13	0	0	0	0	507	478
14	0	0	0	0	508	484
15	0	0	0	0	509	494
0	0	0	0	0	510	503
1	0	0	0	0	510	508
2	0	0	0	0	510	511
3	0	0	0	0	509	511
4	0	0	0	0	506	512
5	0	0	0	0	508	515
6	0	0	0	0	507	512
7	0	0	0	0	506	511
8	0	0	0	0	505	514
9	0	0	0	0	505	512
10	0	0	0	0	506	512
11	0	0	0	0	506	511
12	0	0	0	0	505	511
13	0	0	0	0	505	511
14	0	0	0	0	505	511
15	0	0	0	0	504	511
0	0	0	0	0	504	515
1	0	0	0	0	506	513
2	0	0	0	0	507	511
3	0	0	0	0	505	506
4	0	0	0	0	508	503
5	0	0	0	0	508	498
6	0	0	0	0	508	497
7	0	0	0	0	507	499
8	0	0	0	0	504	499
9	0	0	0	0	497	501
10	0	0	0	0	493	503
11	0	0	0	0	494	510
12	0	0	0	0	493	509
13	0	0	0	0	503	507
14	0	0	0	0	512	505
15	0	0	0	0	519	504
0	0	0	0	0	521	506
1	0	0	0	0	527	508
2	0	0	0	0	525	507
3	0	0	0	0	523	508
4	0	0	0	0	524	508
5	0	0	0	0	517	511
6	0	0	0	0	509	509
7	0	0	0	0	503	507
8	0	0	0	0	501	505
9	0	0	0	0	499	505
10	0	0	0	0	500	506
11	0	0	0	0	502	506
12	0	0	0	0	503	507
13	0	0	0	0	500	508
14	0	0	0	0	502	508
15	0	0	0	0	502	515
0	0	0	0	0	505	524
1	0	0	0	0	504	524
2	0	0	0	0	506	519
3	0	0	0	0	505	509
4	0	0	0	0	505	501
5	0	0	0	0	506	493
6	0	0	0	0	506	487
7	0	0	0	0	506	486
8	0	0	0	0	505	491
9	0	0	0	0	504	505
10	0	0	0	0	505	511
11	0	0	0	0	505	510
12	0	0	0	0	506	510
13	0	0	0	0	506	509
14	0	0	0	0	510	505
15	0	0	0	0	508	499
0	0	0	0	0	509	500
1	0	0	0	0	509	504
2	0	0	0	0	506	509
3	0	0	0	0	509	512
4	0	0	0	0	509	516
5	0	0	0	0	506	516
6	0	0	0	0	506	511
7	0	0	0	0	508	510
8	0	0	0	0	507	511
9	0	0	0	0	506	508
10	0	0	0	0	505	506
11	0	0	0	0	507	509
12	0	0	0	0	506	510
13	0	0	0	0	507	506
14	0	0	0	0	506	509
15	0	0	0	0	506	508
0	0	0	0	0	508	506
1	0	0	0	0	507	504
2	0	0	0	0	507	503
3	0	0	0	0	507	502
4	0	0	0	0	506	501
5	0	0	0	0	506	502
6	0	0	0	0	505	502
7	0	0	0	0	507	504
8	0	0	0	0	508	508
9	0	0	0	0	505	510
10	0	0	0	0	507	513
11	0	0	0	0	508	510
12	0	0	0	0	511	510
13	0	0	0	0	510	508
14	0	0	0	0	508	510
15	0	0	0	0	508	508
0	0	0	0	0	508	510
1	0	0	0	0	507	512
2	0	0	0	0	507	512
3	0	0	0	0	506	513
4	0	0	0	0	507	510
5	0	0	0	0	506	506
6	0	0	0	0	506	506
7	0	0	0	0	507	502
8	0	0	0	0	505	503
9	0	0	0	0	505	505
10	0	0	0	0	504	504
11	0	0	0	0	508	504
12	0	0	0	0	508	510
13	0	0	0	0	509	508
14	0	0	0	0	508	507
15	0	0	0	0	507	504
0	0	0	0	0	506	505
1	0	0	0	0	506	508
2	0	0	0	0	508	508
3	0	0	0	0	508	507
4	0	0	0	0	507	512
5	0	0	0	0	505	519
6	0	0	0	0	504	530
7	0	0	0	0	506	528
8	0	0	0	0	508	521
9	0	0	0	0	506	507
10	0	0	0	0	507	494
11	0	0	0	0	506	483
12	0	0	0	0	507	480
13	0	0	0	0	506	480
14	0	0	0	0	508	481
15	0	0	0	0	508	489
0	0	0	0	0	508	505
1	0	0	0	0	508	512
2	0	0	0	0	507	511
3	0	0	0	0	506	508
4	0	0	0	0	508	504
5	0	0	0	0	507	504
6	0	0	0	0	507	504
7	0	0	0	0	508	502
8	0	0	0	0	508	505
9	0	0	0	0	506	510
10	0	0	0	0	507	513
11	0	0	0	0	506	511
12	0	0	0	0	507	509
13	0	0	0	0	507	507
14	0	0	0	0	507	508
15	0	0	0	0	507	506
0	0	0	0	0	508	508
1	0	0	0	0	510	511
2	0	0	0	0	508	510
3	0	0	0	0	508	512
4	0	0	0	0	508	514
5	0	0	0	0	506	514
6	0	0	0	0	504	512
7	0	0	0	0	504	510
8	0	0	0	0	508	509
9	0	0	0	0	505	512
10	0	0	0	0	507	512
11	0	0	0	0	507	512
12	0	0	0	0	506	517
13	0	0	0	0	507	527
14	0	0	0	0	505	522
15	0	0	0	0	507	510
0	0	0	0	0	505	502
1	0	0	0	0	509	494
2	0	0	0	0	508	485
3	0	0	0	0	504	484
4	0	0	0	0	504	487
5	0	0	0	0	505	495
6	0	0	0	0	506	505
7	0	0	0	0	505	511
8	0	0	0	0	506	517
9	0	0	0	0	505	518
10	0	0	0	0	507	515
11	0	0	0	0	505	512
12	0	0	0	0	507	510
13	0	0	0	0	507	504
14	0	0	0	0	507	502
15	0	0	0	0	506	497
0	0	0	0	0	505	499
1	0	0	0	0	508	503
2	0	0	0	0	507	505
3	0	0	0	0	507	511
4	0	0	0	0	507	512
5	0	0	0	0	508	513
6	0	0	0	0	509	516
7	0	0	0	0	509	515
8	0	0	0	0	509	515
9	0	0	0	0	506	514
10	0	0	0	0	507	509
11	0	0	0	0	509	503
12	0	0	0	0	506	496
13	0	0	0	0	509	497
14	0	0	0	0	505	496
15	0	0	0	0	505	493
0	0	0	0	0	505	499
1	0	0	0	0	506	504
2	0	0	0	0	508	515
3	0	0	0	0	505	527
4	0	0	0	0	508	531
5	0	0	0	0	508	529
6	0	0	0	0	507	519
7	0	0	0	0	506	510
8	0	0	0	0	508	497
9	0	0	0	0	506	484
10	0	0	0	0	510	479
11	0	0	0	0	508	481
12	0	0	0	0	509	482
13	0	0	0	0	508	492
14	0	0	0	0	507	498
15	0	0	0	0	508	504
0	0	0	0	0	508	508
1	0	0	0	0	507	510
2	0	0	0	0	507	514
3	0	0	0	0	506	514
4	0	0	0	0	506	518
5	0	0	0	0	505	514
6	0	0	0	0	504	514
7	0	0	0	0	505	513
8	0	0	0	0	504	513
9	0	0	0	0	506	512
10	0	0	0	0	506	512
11	0	0	0	0	505	514
12	0	0	0	0	507	514
13	0	0	0	0	508	511
14	0	0	0	0	505	514
15	0	0	0	0	508	512
0	0	0	0	0	507	508
1	0	0	0	0	506	505
2	0	0	0	0	508	502
3	0	0	0	0	507	499
4	0	0	0	0	505	502
5	0	0	0	0	506	507
6	0	0	0	0	507	509
7	0	0	0	0	507	510
8	0	0	0	0	507	520
9	0	0	0	0	508	525
10	0	0	0	0	507	520
11	0	0	0	0	506	515
12	0	0	0	0	506	508
13	0	0	0	0	507	497
14	0	0	0	0	508	487
15	0	0	0	0	510	477
0	0	0	0	0	510	472
1	0	0	0	0	508	478
2	0	0	0	0	509	492
3	0	0	0	0	505	500
4	0	0	0	0	507	508
5	0	0	0	0	508	517
6	0	0	0	0	507	522
7	0	0	0	0	507	517
8	0	0	0	0	507	518
9	0	0	0	0	507	510
10	0	0	0	0	506	508
11	0	0	0	0	505	504
12	0	0	0	0	508	504
13	0	0	0	0	509	504
14	0	0	0	0	507	505
15	0	0	0	0	505	509
0	0	0	0	0	505	510
1	0	0	0	0	506	511
2	0	0	0	0	507	514
3	0	0	0	0	508	518
4	0	0	0	0	508	521
5	0	0	0	0	507	527
6	0	0	0	0	506	523
7	0	0	0	0	507	519
8	0	0	0	0	507	509
9	0	0	0	0	507	507
10	0	0	0	0	507	513
11	0	0	0	0	505	511
12	0	0	0	0	505	507
13	0	0	0	0	501	500
14	0	0	0	0	499	498
15	0	0	0	0	502	495
0	0	0	0	0	504	487
1	0	0	0	0	505	481
2	0	0	0	0	504	482
3	0	0	0	0	510	485
4	0	0	0	0	510	495
5	0	0	0	0	513	500
6	0	0	0	0	515	508
7	0	0	0	0	515	512
8	0	0	0	0	513	515
9	0	0	0	0	513	517
10	0	0	0	0	510	515
11	0	0	0	0	508	514
12	0	0	0	0	511	515
13	0	0	0	0	506	514
14	0	0	0	0	503	518
15	0	0	0	0	505	516
0	0	0	0	0	505	512
1	0	0	0	0	507	510
2	0	0	0	0	505	505
3	0	0	0	0	504	503
4	0	0	0	0	503	504
5	0	0	0	0	504	503
6	0	0	0	0	504	504
7	0	0	0	0	505	507
8	0	0	0	0	506	510
9	0	0	0	0	506	511
10	0	0	0	0	504	510
11	0	0	0	0	508	508
12	0	0	0	0	509	508
13	0	0	0	0	507	508
14	0	0	0	0	508	511
15	0	0	0	0	508	510
0	0	0	0	0	505	508
1	0	0	0	0	509	509
2	0	0	0	0	506	511
3	0	0	0	0	508	510
4	0	0	0	0	505	510
5	0	0	0	0	509	512
6	0	0	0	0	508	511
7	0	0	0	0	507	513
8	0	0	0	0	507	508
9	0	0	0	0	508	502
10	0	0	0	0	509	495
11	0	0	0	0	507	490
12	0	0	0	0	508	488
13	0	0	0	0	506	493
14	0	0	0	0	509	501
15	0	0	0	0	508	508
0	0	0	0	0	508	513
1	0	0	0	0	508	519
2	0	0	0	0	506	524
3	0	0	0	0	503	525
4	0	0	0	0	506	517
5	0	0	0	0	505	509
6	0	0	0	0	506	502
7	0	0	0	0	507	501
8	0	0	0	0	507	500
9	0	0	0	0	508	500
10	0	0	0	0	507	503
11	0	0	0	0	506	499
12	0	0	0	0	508	499
13	0	0	0	0	509	499
14	0	0	0	0	509	499
15	0	0	0	0	508	497
0	0	0	0	0	505	496
1	0	0	0	0	505	500
2	0	0	0	0	507	503
3	0	0	0	0	507	506
4	0	0	0	0	506	515
5	0	0	0	0	506	520
6	0	0	0	0	509	518
7	0	0	0	0	506	517
8	0	0	0	0	508	512
9	0	0	0	0	507	508
10	0	0	0	0	507	515
11	0	0	0	0	506	516
12	0	0	0	0	507	509
13	0	0	0	0	505	502
14	0	0	0	0	507	501
15	0	0	0	0	507	500
0	0	0	0	0	508	502
1	0	0	0	0	508	500
2	0	0	0	0	509	504
3	0	0	0	0	507	512
4	0	0	0	0	508	511
5	0	0	0	0	506	510
6	0	0	0	0	509	508
7	0	0	0	0	507	507
8	0	0	0	0	507	501
9	0	0	0	0	507	498
10	0	0	0	0	505	497
11	0	0	0	0	508	504
12	0	0	0	0	507	510
13	0	0	0	0	505	513
14	0	0	0	0	508	518
15	0	0	0	0	508	522
0	0	0	0	0	508	516
1	0	0	0	0	508	509
2	0	0	0	0	508	501
3	0	0	0	0	508	496
4	0	0	0	0	505	494
5	0	0	0	0	505	492
6	0	0	0	0	507	493
7	0	0	0	0	506	496
8	0	0	0	0	510	504
9	0	0	0	0	509	509
10	0	0	0	0	507	511
11	0	0	0	0	507	511
12	0	0	0	0	508	511
13	0	0	0	0	504	511
14	0	0	0	0	508	513
15	0	0	0	0	506	513
0	0	0	0	0	507	517
1	0	0	0	0	506	518
2	0	0	0	0	504	512
3	0	0	0	0	507	511
4	0	0	0	0	505	504
5	0	0	0	0	507	501
6	0	0	0	0	506	499
7	0	0	0	0	507	504
8	0	0	0	0	507	504
9	0	0	0	0	508	501
10	0	0	0	0	506	504
11	0	0	0	0	505	505
12	0	0	0	0	508	502
13	0	0	0	0	507	504
14	0	0	0	0	507	508
15	0	0	0	0	505	514
0	0	0	0	0	506	517
1	0	0	0	0	509	520
2	0	0	0	0	510	526
3	0	0	0	0	506	534
4	0	0	0	0	507	533
5	0	0	0	0	507	523
6	0	0	0	0	506	507
7	0	0	0	0	505	497
8	0	0	0	0	504	489
9	0	0	0	0	506	486
10	0	0	0	0	507	488
11	0	0	0	0	505	490
12	0	0	0	0	504	496
13	0	0	0	0	508	496
14	0	0	0	0	508	501
15	0	0	0	0	509	501
0	0	0	0	0	511	497
1	0	0	0	0	510	501
2	0	0	0	0	508	503
3	0	0	0	0	505	504
4	0	0	0	0	508	507
5	0	0	0	0	507	507
6	0	0	0	0	507	511
7	0	0	0	0	508	517
8	0	0	0	0	506	519
9	0	0	0	0	508	519
10	0	0	0	0	505	513
11	0	0	0	0	506	509
12	0	0	0	0	505	505
13	0	0	0	0	509	504
14	0	0	0	0	510	506
15	0	0	0	0	505	510
0	0	0	0	0	506	511
1	0	0	0	0	508	513
2	0	0	0	0	508	515
3	0	0	0	0	506	513
4	0	0	0	0	508	508
5	0	0	0	0	506	510
6	0	0	0	0	505	513
7	0	0	0	0	505	513
8	0	0	0	0	508	508
9	0	0	0	0	507	499
10	0	0	0	0	507	488
11	0	0	0	0	508	486
12	0	0	0	0	504	483
13	0	0	0	0	505	488
14	0	0	0	0	507	495
15	0	0	0	0	507	503
0	0	0	0	0	508	511
1	0	0	0	0	508	514
2	0	0	0	0	508	514
3	0	0	0	0	508	516
4	0	0	0	0	506	513
5	0	0	0	0	505	514
6	0	0	0	0	504	515
7	0	0	0	0	507	519
8	0	0	0	0	508	518
9	0	0	0	0	509	515
10	0	0	0	0	507	513
11	0	0	0	0	508	513
12	0	0	0	0	505	513
13	0	0	0	0	506	511
14	0	0	0	0	510	505
15	0	0	0	0	508	504
0	0	0	0	0	508	498
1	0	0	0	0	506	493
2	0	0	0	0	507	494
3	0	0	0	0	508	495
4	0	0	0	0	508	497
5	0	0	0	0	509	492
6	0	0	0	0	506	497
7	0	0	0	0	504	504
8	0	0	0	0	505	508
9	0	0	0	0	506	510
10	0	0	0	0	504	513
11	0	0	0	0	503	513
12	0	0	0	0	506	514
13	0	0	0	0	507	513
14	0	0	0	0	506	514
15	0	0	0	0	506	519
0	0	0	0	0	508	525
1	0	0	0	0	507	528
2	0	0	0	0	507	517
3	0	0	0	0	507	507
4	0	0	0	0	504	500
5	0	0	0	0	508	493
6	0	0	0	0	509	487
7	0	0	0	0	508	489
8	0	0	0	0	508	497
9	0	0	0	0	510	510
10	0	0	0	0	508	512
11	0	0	0	0	505	512
12	0	0	0	0	507	504
13	0	0	0	0	505	499
14	0	0	0	0	505	497
15	0	0	0	0	507	495
0	0	0	0	0	505	497
1	0	0	0	0	508	501
2	0	0	0	0	510	505
3	0	0	0	0	508	511
4	0	0	0	0	511	517
5	0	0	0	0	508	519
6	0	0	0	0	507	516
7	0	0	0	0	507	513
8	0	0	0	0	508	511
9	0	0	0	0	507	506
10	0	0	0	0	504	506
11	0	0	0	0	507	506
12	0	0	0	0	506	505
13	0	0	0	0	507	509
14	0	0	0	0	504	512
15	0	0	0	0	505	516
0	0	0	0	0	506	517
1	0	0	0	0	507	511
2	0	0	0	0	508	509
3	0	0	0	0	508	506
4	0	0	0	0	507	499
5	0	0	0	0	507	495
6	0	0	0	0	507	496
7	0	0	0	0	506	503
8	0	0	0	0	508	507
9	0	0	0	0	507	508
10	0	0	0	0	504	506
11	0	0	0	0	505	507
12	0	0	0	0	507	504
13	0	0	0	0	508	502
14	0	0	0	0	507	504
15	0	0	0	0	508	511
0	0	0	0	0	507	514
1	0	0	0	0	509	510
2	0	0	0	0	508	507
3	0	0	0	0	505	502
4	0	0	0	0	507	499
5	0	0	0	0	507	505
6	0	0	0	0	507	506
7	0	0	0	0	507	509
8	0	0	0	0	506	527
9	0	0	0	0	507	536
10	0	0	0	0	504	535
11	0	0	0	0	508	521
12	0	0	0	0	508	506
13	0	0	0	0	505	494
14	0	0	0	0	508	483
15	0	0	0	0	506	478
0	0	0	0	0	508	483
1	0	0	0	0	507	505
2	0	0	0	0	507	520
3	0	0	0	0	508	519
4	0	0	0	0	508	521
5	0	0	0	0	504	511
6	0	0	0	0	504	501
7	0	0	0	0	504	489
8	0	0	0	0	507	492
9	0	0	0	0	504	499
10	0	0	0	0	505	504
11	0	0	0	0	506	505
12	0	0	0	0	505	503
13	0	0	0	0	507	497
14	0	0	0	0	506	494
15	0	0	0	0	507	494
0	0	0	0	0	511	495
1	0	0	0	0	506	494
2	0	0	0	0	508	500
3	0	0	0	0	507	508
4	0	0	0	0	508	510
5	0	0	0	0	505	514
6	0	0	0	0	504	514
7	0	0	0	0	506	515
8	0	0	0	0	508	516
9	0	0	0	0	507	515
10	0	0	0	0	505	516
11	0	0	0	0	507	515
12	0	0	0	0	509	512
13	0	0	0	0	508	512
14	0	0	0	0	508	511
15	0	0	0	0	508	511
0	0	0	0	0	507	512
1	0	0	0	0	509	510
2	0	0	0	0	509	508
3	0	0	0	0	509	507
4	0	0	0	0	507	508
5	0	0	0	0	508	508
6	0	0	0	0	506	507
7	0	0	0	0	508	508
8	0	0	0	0	507	508
9	0	0	0	0	508	507
10	0	0	0	0	504	507
11	0	0	0	0	506	505
12	0	0	0	0	505	507
13	0	0	0	0	509	506
14	0	0	0	0	508	508
15	0	0	0	0	506	508
0	0	0	0	0	504	507
1	0	0	0	0	506	508
2	0	0	0	0	508	506
3	0	0	0	0	509	508
4	0	0	0	0	507	505
5	0	0	0	0	507	505
6	0	0	0	0	506	506
7	0	0	0	0	508	504
8	0	0	0	0	507	510
9	0	0	0	0	507	516
10	0	0	0	0	507	520
11	0	0	0	0	506	520
12	0	0	0	0	507	517
13	0	0	0	0	506	508
14	0	0	0	0	507	500
15	0	0	0	0	508	487
0	0	0	0	0	506	478
1	0	0	0	0	507	475
2	0	0	0	0	506	478
3	0	0	0	0	507	487
4	0	0	0	0	506	496
5	0	0	0	0	504	505
6	0	0	0	0	504	519
7	0	0	0	0	505	529
8	0	0	0	0	506	527
9	0	0	0	0	506	523
10	0	0	0	0	507	516
11	0	0	0	0	507	511
12	0	0	0	0	508	512
13	0	0	0	0	508	511
14	0	0	0	0	507	514
15	0	0	0	0	508	516
0	0	0	0	0	509	516
1	0	0	0	0	507	510
2	0	0	0	0	507	504
3	0	0	0	0	508	496
4	0	0	0	0	507	490
5	0	0	0	0	506	487
6	0	0	0	0	506	490
7	0	0	0	0	509	495
8	0	0	0	0	509	502
9	0	0	0	0	505	506
10	0	0	0	0	505	511
11	0	0	0	0	507	516
12	0	0	0	0	505	516
13	0	0	0	0	506	516
14	0	0	0	0	507	515
15	0	0	0	0	506	511
0	0	0	0	0	508	513
1	0	0	0	0	509	513
2	0	0	0	0	508	513
3	0	0	0	0	507	516
4	0	0	0	0	507	515
5	0	0	0	0	506	511
6	0	0	0	0	506	515
7	0	0	0	0	508	520
8	0	0	0	0	507	519
9	0	0	0	0	506	511
10	0	0	0	0	508	504
11	0	0	0	0	508	499
12	0	0	0	0	508	492
13	0	0	0	0	508	490
14	0	0	0	0	507	499
15	0	0	0	0	507	510
0	0	0	0	0	507	514
1	0	0	0	0	507	513
2	0	0	0	0	507	511
3	0	0	0	0	508	505
4	0	0	0	0	506	490
5	0	0	0	0	506	481
6	0	0	0	0	507	485
7	0	0	0	0	508	488
8	0	0	0	0	506	494
9	0	0	0	0	505	501
10	0	0	0	0	507	506
11	0	0	0	0	507	512
12	0	0	0	0	507	519
13	0	0	0	0	507	519
14	0	0	0	0	507	516
15	0	0	0	0	507	515
0	0	0	0	0	504	514
1	0	0	0	0	507	513
2	0	0	0	0	508	509
3	0	0	0	0	504	510
4	0	0	0	0	505	511
5	0	0	0	0	507	511
6	0	0	0	0	506	512
7	0	0	0	0	508	512
8	0	0	0	0	507	515
9	0	0	0	0	506	523
10	0	0	0	0	508	520
11	0	0	0	0	505	512
12	0	0	0	0	509	504
13	0	0	0	0	507	507
14	0	0	0	0	509	503
15	0	0	0	0	507	507
0	0	0	0	0	508	512
1	0	0	0	0	508	512
2	0	0	0	0	507	504
3	0	0	0	0	506	492
4	0	0	0	0	508	487
5	0	0	0	0	504	481
6	0	0	0	0	508	481
7	0	0	0	0	507	481
8	0	0	0	0	505	490
9	0	0	0	0	507	499
10	0	0	0	0	508	510
11	0	0	0	0	508	515
12	0	0	0	0	508	519
13	0	0	0	0	505	525
14	0	0	0	0	506	531
15	0	0	0	0	505	532
0	0	0	0	0	504	525
1	0	0	0	0	508	518
2	0	0	0	0	505	508
3	0	0	0	0	506	501
4	0	0	0	0	508	498
5	0	0	0	0	506	492
6	0	0	0	0	508	495
7	0	0	0	0	507	500
8	0	0	0	0	508	504
9	0	0	0	0	507	508
10	0	0	0	0	505	507
11	0	0	0	0	506	505
12	0	0	0	0	506	506
13	0	0	0	0	505	505
14	0	0	0	0	504	503
15	0	0	0	0	505	507
0	0	0	0	0	508	508
1	0	0	0	0	508	509
2	0	0	0	0	507	508
3	0	0	0	0	508	509
4	0	0	0	0	508	508
5	0	0	0	0	508	512
6	0	0	0	0	507	515
7	0	0	0	0	507	515
8	0	0	0	0	510	511
9	0	0	0	0	510	512
10	0	0	0	0	510	509
11	0	0	0	0	507	505
12	0	0	0	0	507	507
13	0	0	0	0	505	508
14	0	0	0	0	507	508
15	0	0	0	0	507	511
0	0	0	0	0	505	511
1	0	0	0	0	506	513
2	0	0	0	0	509	513
3	0	0	0	0	508	507
4	0	0	0	0	507	499
5	0	0	0	0	506	492
6	0	0	0	0	507	487
7	0	0	0	0	507	493
8	0	0	0	0	506	503
9	0	0	0	0	508	506
10	0	0	0	0	508	511
11	0	0	0	0	504	517
12	0	0	0	0	506	515
13	0	0	0	0	505	515
14	0	0	0	0	508	518
15	0	0	0	0	506	522
0	0	0	0	0	505	515
1	0	0	0	0	507	500
2	0	0	0	0	506	490
3	0	0	0	0	504	485
4	0	0	0	0	508	475
5	0	0	0	0	506	470
6	0	0	0	0	506	480
7	0	0	0	0	507	487
8	0	0	0	0	508	504
9	0	0	0	0	505	514
10	0	0	0	0	507	522
11	0	0	0	0	506	521
12	0	0	0	0	504	520
13	0	0	0	0	508	519
14	0	0	0	0	508	517
15	0	0	0	0	509	518
0	0	0	0	0	508	515
1	0	0	0	0	508	516
2	0	0	0	0	507	515
3	0	0	0	0	504	513
4	0	0	0	0	505	511
5	0	0	0	0	506	510
6	0	0	0	0	506	508
7	0	0	0	0	507	510
8	0	0	0	0	509	515
9	0	0	0	0	508	524
10	0	0	0	0	508	524
11	0	0	0	0	509	522
12	0	0	0	0	510	512
13	0	0	0	0	507	502
14	0	0	0	0	511	495
15	0	0	0	0	506	487
0	0	0	0	0	507	484
1	0	0	0	0	508	487
2	0	0	0	0	504	492
3	0	0	0	0	505	496
4	0	0	0	0	506	500
5	0	0	0	0	507	503
6	0	0	0	0	509	505
7	0	0	0	0	505	509
8	0	0	0	0	507	511
9	0	0	0	0	506	513
10	0	0	0	0	506	513
11	0	0	0	0	507	513
12	0	0	0	0	507	517
13	0	0	0	0	504	521
14	0	0	0	0	505	519
15	0	0	0	0	508	516
0	0	0	0	0	507	520
1	0	0	0	0	506	521
2	0	0	0	0	509	514
3	0	0	0	0	508	507
4	0	0	0	0	508	498
5	0	0	0	0	506	494
6	0	0	0	0	507	492
7	0	0	0	0	508	490
8	0	0	0	0	506	492
9	0	0	0	0	505	496
10	0	0	0	0	505	512
11	0	0	0	0	503	518
12	0	0	0	0	507	514
13	0	0	0	0	507	508
14	0	0	0	0	508	502
15	0	0	0	0	508	498
0	0	0	0	0	508	496
1	0	0	0	0	507	496
2	0	0	0	0	508	513
3	0	0	0	0	508	531
4	0	0	0	0	507	529
5	0	0	0	0	508	515
6	0	0	0	0	507	503
7	0	0	0	0	507	494
8	0	0	0	0	506	489
9	0	0	0	0	505	486
10	0	0	0	0	506	488
11	0	0	0	0	506	497
12	0	0	0	0	507	508
13	0	0	0	0	508	512
14	0	0	0	0	506	510
15	0	0	0	0	504	511
0	0	0	0	0	506	512
1	0	0	0	0	506	509
2	0	0	0	0	508	509
3	0	0	0	0	506	508
4	0	0	0	0	506	512
5	0	0	0	0	507	518
6	0	0	0	0	508	515
7	0	0	0	0	505	513
8	0	0	0	0	509	515
9	0	0	0	0	508	517
10	0	0	0	0	506	513
11	0	0	0	0	506	508
12	0	0	0	0	505	503
13	0	0	0	0	508	501
14	0	0	0	0	507	501
15	0	0	0	0	509	499
0	0	0	0	0	506	500
1	0	0	0	0	507	504
2	0	0	0	0	507	510
3	0	0	0	0	508	512
4	0	0	0	0	508	511
5	0	0	0	0	508	506
6	0	0	0	0	509	504
7	0	0	0	0	508	504
8	0	0	0	0	506	501
9	0	0	0	0	507	502
10	0	0	0	0	505	505
11	0	0	0	0	508	512
12	0	0	0	0	506	512
13	0	0	0	0	506	512
14	0	0	0	0	508	517
15	0	0	0	0	507	517
0	0	0	0	0	504	514
1	0	0	0	0	507	521
2	0	0	0	0	508	530
3	0	0	0	0	509	520
4	0	0	0	0	507	502
5	0	0	0	0	504	491
6	0	0	0	0	506	488
7	0	0	0	0	506	478
8	0	0	0	0	507	475
9	0	0	0	0	507	473
10	0	0	0	0	509	483
11	0	0	0	0	507	496
12	0	0	0	0	504	504
13	0	0	0	0	504	512
14	0	0	0	0	505	518
15	0	0	0	0	507	519
0	0	0	0	0	508	519
1	0	0	0	0	507	519
2	0	0	0	0	507	520
3	0	0	0	0	506	519
4	0	0	0	0	508	518
5	0	0	0	0	510	519
6	0	0	0	0	507	519
7	0	0	0	0	508	514
8	0	0	0	0	508	508
9	0	0	0	0	507	497
10	0	0	0	0	509	491
11	0	0	0	0	507	490
12	0	0	0	0	505	488
13	0	0	0	0	507	496
14	0	0	0	0	505	508
15	0	0	0	0	506	513
0	0	0	0	0	507	513
1	0	0	0	0	507	513
2	0	0	0	0	509	511
3	0	0	0	0	510	507
4	0	0	0	0	508	502
5	0	0	0	0	506	501
6	0	0	0	0	507	508
7	0	0	0	0	506	508
8	0	0	0	0	507	508
9	0	0	0	0	508	509
10	0	0	0	0	507	506
11	0	0	0	0	506	506
12	0	0	0	0	506	509
13	0	0	0	0	507	511
14	0	0	0	0	506	512
15	0	0	0	0	504	511
0	0	0	0	0	507	508
1	0	0	0	0	506	505
2	0	0	0	0	506	500
3	0	0	0	0	507	499
4	0	0	0	0	507	500
5	0	0	0	0	508	500
6	0	0	0	0	508	505
7	0	0	0	0	505	508
8	0	0	0	0	506	512
9	0	0	0	0	507	518
10	0	0	0	0	507	526
11	0	0	0	0	505	526
12	0	0	0	0	508	517
13	0	0	0	0	507	508
14	0	0	0	0	506	501
15	0	0	0	0	507	494
0	0	0	0	0	506	492
1	0	0	0	0	504	495
2	0	0	0	0	509	500
3	0	0	0	0	508	505
4	0	0	0	0	507	512
5	0	0	0	0	507	512
6	0	0	0	0	508	514
7	0	0	0	0	507	518
8	0	0	0	0	505	522
9	0	0	0	0	507	520
10	0	0	0	0	510	520
11	0	0	0	0	507	514
12	0	0	0	0	507	511
13	0	0	0	0	507	509
14	0	0	0	0	507	506
15	0	0	0	0	504	503
0	0	0	0	0	504	499
1	0	0	0	0	508	498
2	0	0	0	0	508	496
3	0	0	0	0	508	497
4	0	0	0	0	508	494
5	0	0	0	0	505	494
6	0	0	0	0	505	494
7	0	0	0	0	504	494
8	0	0	0	0	506	491
9	0	0	0	0	507	497
10	0	0	0	0	506	503
11	0	0	0	0	508	503
12	0	0	0	0	507	504
13	0	0	0	0	505	512
14	0	0	0	0	505	520
15	0	0	0	0	507	521
0	0	0	0	0	507	517
1	0	0	0	0	507	515
2	0	0	0	0	508	513
3	0	0	0	0	508	508
4	0	0	0	0	507	506
5	0	0	0	0	505	500
6	0	0	0	0	505	503
7	0	0	0	0	508	503
8	0	0	0	0	508	504
9	0	0	0	0	508	504
10	0	0	0	0	510	508
11	0	0	0	0	508	514
12	0	0	0	0	509	517
13	0	0	0	0	509	517
14	0	0	0	0	506	518
15	0	0	0	0	507	520
0	0	0	0	0	505	512
1	0	0	0	0	507	504
2	0	0	0	0	505	500
3	0	0	0	0	506	495
4	0	0	0	0	508	491
5	0	0	0	0	505	494
6	0	0	0	0	507	492
7	0	0	0	0	505	500
8	0	0	0	0	505	505
9	0	0	0	0	508	509
10	0	0	0	0	508	513
11	0	0	0	0	508	512
12	0	0	0	0	506	513
13	0	0	0	0	507	511
14	0	0	0	0	506	512
15	0	0	0	0	505	513
0	0	0	0	0	505	513
1	0	0	0	0	506	519
2	0	0	0	0	508	518
3	0	0	0	0	508	515
4	0	0	0	0	509	510
5	0	0	0	0	508	504
6	0	0	0	0	505	504
7	0	0	0	0	505	501
8	0	0	0	0	506	498
9	0	0	0	0	508	496
10	0	0	0	0	506	496
11	0	0	0	0	506	499
12	0	0	0	0	506	503
13	0	0	0	0	504	510
14	0	0	0	0	506	513
15	0	0	0	0	506	515
0	0	0	0	0	508	513
1	0	0	0	0	508	511
2	0	0	0	0	505	510
3	0	0	0	0	504	514
4	0	0	0	0	508	511
5	0	0	0	0	509	507
6	0	0	0	0	509	511
7	0	0	0	0	507	511
8	0	0	0	0	507	509
9	0	0	0	0	508	508
10	0	0	0	0	509	504
11	0	0	0	0	508	500
12	0	0	0	0	508	499
13	0	0	0	0	506	502
14	0	0	0	0	508	506
15	0	0	0	0	504	508
0	0	0	0	0	507	507
1	0	0	0	0	505	502
2	0	0	0	0	505	499
3	0	0	0	0	506	495
4	0	0	0	0	507	498
5	0	0	0	0	506	505
6	0	0	0	0	508	511
7	0	0	0	0	504	513
8	0	0	0	0	507	515
9	0	0	0	0	506	511
10	0	0	0	0	507	507
11	0	0	0	0	508	499
12	0	0	0	0	508	497
13	0	0	0	0	507	502
14	0	0	0	0	506	507
15	0	0	0	0	505	513
0	0	0	0	0	508	515
1	0	0	0	0	507	515
2	0	0	0	0	508	513
3	0	0	0	0	506	509
4	0	0	0	0	506	508
5	0	0	0	0	505	507
6	0	0	0	0	506	503
7	0	0	0	0	508	504
8	0	0	0	0	509	506
9	0	0	0	0	508	509
10	0	0	0	0	510	509
11	0	0	0	0	508	509
12	0	0	0	0	508	511
13	0	0	0	0	509	506
14	0	0	0	0	508	506
15	0	0	0	0	508	505
0	0	0	0	0	510	505
1	0	0	0	0	508	503
2	0	0	0	0	508	507
3	0	0	0	0	506	512
4	0	0	0	0	506	512
5	0	0	0	0	507	509
6	0	0	0	0	505	505
7	0	0	0	0	508	504
8	0	0	0	0	506	503
9	0	0	0	0	505	504
10	0	0	0	0	504	508
11	0	0	0	0	505	511
12	0	0	0	0	504	512
13	0	0	0	0	506	511
14	0	0	0	0	507	512
15	0	0	0	0	504	512
0	0	0	0	0	506	508
1	0	0	0	0	507	505
2	0	0	0	0	506	514
3	0	0	0	0	507	519
4	0	0	0	0	507	513
5	0	0	0	0	508	502
6	0	0	0	0	508	492
7	0	0	0	0	508	489
8	0	0	0	0	508	487
9	0	0	0	0	505	495
10	0	0	0	0	506	502
11	0	0	0	0	505	510
12	0	0	0	0	507	512
13	0	0	0	0	505	511
14	0	0	0	0	506	510
15	0	0	0	0	507	513
0	0	0	0	0	508	513
1	0	0	0	0	506	514
2	0	0	0	0	506	514
3	0	0	0	0	505	514
4	0	0	0	0	506	512
5	0	0	0	0	507	504
6	0	0	0	0	506	500
7	0	0	0	0	507	505
8	0	0	0	0	505	505
9	0	0	0	0	508	499
10	0	0	0	0	507	497
11	0	0	0	0	506	497
12	0	0	0	0	508	493
13	0	0	0	0	508	494
14	0	0	0	0	508	497
15	0	0	0	0	508	500
0	0	0	0	0	506	508
1	0	0	0	0	508	510
2	0	0	0	0	507	512
3	0	0	0	0	508	515
4	0	0	0	0	507	517
5	0	0	0	0	506	514
6	0	0	0	0	507	512
7	0	0	0	0	507	509
8	0	0	0	0	507	511
9	0	0	0	0	508	517
10	0	0	0	0	506	524
11	0	0	0	0	504	518
12	0	0	0	0	505	512
13	0	0	0	0	508	508
14	0	0	0	0	508	502
15	0	0	0	0	508	493
0	0	0	0	0	507	490
1	0	0	0	0	506	496
2	0	0	0	0	506	508
3	0	0	0	0	507	512
4	0	0	0	0	505	512
5	0	0	0	0	507	510
6	0	0	0	0	506	508
7	0	0	0	0	505	508
8	0	0	0	0	505	513
9	0	0	0	0	507	512
10	0	0	0	0	507	512
11	0	0	0	0	508	509
12	0	0	0	0	508	504
13	0	0	0	0	507	497
14	0	0	0	0	508	494
15	0	0	0	0	508	496
0	0	0	0	0	507	498
1	0	0	0	0	509	505
2	0	0	0	0	508	508
3	0	0	0	0	506	511
4	0	0	0	0	504	513
5	0	0	0	0	507	511
6	0	0	0	0	507	518
7	0	0	0	0	504	515
8	0	0	0	0	507	516
9	0	0	0	0	509	515
10	0	0	0	0	507	525
11	0	0	0	0	507	520
12	0	0	0	0	506	510
13	0	0	0	0	506	506
14	0	0	0	0	509	502
15	0	0	0	0	507	500
0	0	0	0	0	508	497
1	0	0	0	0	507	492
2	0	0	0	0	504	491
3	0	0	0	0	506	496
4	0	0	0	0	508	497
5	0	0	0	0	508	503
6	0	0	0	0	508	507
7	0	0	0	0	506	508
8	0	0	0	0	507	505
9	0	0	0	0	506	501
10	0	0	0	0	505	500
11	0	0	0	0	505	498
12	0	0	0	0	509	497
13	0	0	0	0	508	499
14	0	0	0	0	508	509
15	0	0	0	0	508	515
0	0	0	0	0	508	515
1	0	0	0	0	506	511
2	0	0	0	0	506	509
3	0	0	0	0	505	508
4	0	0	0	0	506	509
5	0	0	0	0	506	509
6	0	0	0	0	507	511
7	0	0	0	0	508	511
8	0	0	0	0	509	513
9	0	0	0	0	508	518
10	0	0	0	0	505	526
11	0	0	0	0	505	523
12	0	0	0	0	504	516
13	0	0	0	0	507	511
14	0	0	0	0	505	509
15	0	0	0	0	506	505
0	0	0	0	0	508	494
1	0	0	0	0	507	487
2	0	0	0	0	508	486
3	0	0	0	0	506	491
4	0	0	0	0	506	496
5	0	0	0	0	508	501
6	0	0	0	0	507	508
7	0	0	0	0	506	512
8	0	0	0	0	509	517
9	0	0	0	0	505	517
10	0	0	0	0	506	520
11	0	0	0	0	507	519
12	0	0	0	0	505	516
13	0	0	0	0	505	513
14	0	0	0	0	505	507
15	0	0	0	0	507	502
0	0	0	0	0	508	499
1	0	0	0	0	508	502
2	0	0	0	0	510	502
3	0	0	0	0	509	497
4	0	0	0	0	507	499
5	0	0	0	0	507	498
6	0	0	0	0	505	499
7	0	0	0	0	508	499
8	0	0	0	0	508	501
9	0	0	0	0	510	508
10	0	0	0	0	507	519
11	0	0	0	0	508	521
12	0	0	0	0	508	517
13	0	0	0	0	505	511
14	0	0	0	0	506	510
15	0	0	0	0	505	511
0	0	0	0	0	505	508
1	0	0	0	0	506	509
2	0	0	0	0	507	510
3	0	0	0	0	505	512
4	0	0	0	0	506	510
5	0	0	0	0	505	505
6	0	0	0	0	505	503
7	0	0	0	0	505	502
8	0	0	0	0	506	503
9	0	0	0	0	510	500
10	0	0	0	0	508	495
11	0	0	0	0	509	497
12	0	0	0	0	506	504
13	0	0	0	0	507	504
14	0	0	0	0	504	506
15	0	0	0	0	505	506
0	0	0	0	0	505	507
1	0	0	0	0	506	508
2	0	0	0	0	507	513
3	0	0	0	0	508	514
4	0	0	0	0	509	512
5	0	0	0	0	507	512
6	0	0	0	0	510	511
7	0	0	0	0	508	508
8	0	0	0	0	507	506
9	0	0	0	0	509	504
10	0	0	0	0	507	507
11	0	0	0	0	508	512
12	0	0	0	0	508	514
13	0	0	0	0	506	511
14	0	0	0	0	504	507
15	0	0	0	0	509	511
0	0	0	0	0	505	508
1	0	0	0	0	507	508
2	0	0	0	0	506	504
3	0	0	0	0	504	504
4	0	0	0	0	508	508
5	0	0	0	0	507	502
6	0	0	0	0	507	501
7	0	0	0	0	506	500
8	0	0	0	0	505	501
9	0	0	0	0	507	499
10	0	0	0	0	508	499
11	0	0	0	0	507	499
12	0	0	0	0	506	498
13	0	0	0	0	508	501
14	0	0	0	0	508	505
15	0	0	0	0	510	511
0	0	0	0	0	507	512
1	0	0	0	0	508	515
2	0	0	0	0	508	515
3	0	0	0	0	506	510
4	0	0	0	0	507	508
5	0	0	0	0	507	504
6	0	0	0	0	508	505
7	0	0	0	0	506	506
8	0	0	0	0	507	508
9	0	0	0	0	505	509
10	0	0	0	0	507	508
11	0	0	0	0	507	509
12	0	0	0	0	505	509
13	0	0	0	0	506	511
14	0	0	0	0	507	510
15	0	0	0	0	507	513
0	0	0	0	0	507	513
1	0	0	0	0	507	511
2	0	0	0	0	505	511
3	0	0	0	0	506	510
4	0	0	0	0	507	514
5	0	0	0	0	506	524
6	0	0	0	0	507	521
7	0	0	0	0	508	513
8	0	0	0	0	507	508
9	0	0	0	0	507	508
10	0	0	0	0	509	514
11	0	0	0	0	508	505
12	0	0	0	0	508	490
13	0	0	0	0	508	479
14	0	0	0	0	507	476
15	0	0	0	0	507	474
0	0	0	0	0	507	477
1	0	0	0	0	505	484
2	0	0	0	0	506	495
3	0	0	0	0	507	508
4	0	0	0	0	509	517
5	0	0	0	0	507	519
6	0	0	0	0	506	520
7	0	0	0	0	506	515
8	0	0	0	0	506	520
9	0	0	0	0	508	521
10	0	0	0	0	506	525
11	0	0	0	0	508	539
12	0	0	0	0	504	557
13	0	0	0	0	504	547
14	0	0	0	0	508	525
15	0	0	0	0	507	500
0	0	0	0	0	506	478
1	0	0	0	0	509	464
2	0	0	0	0	508	456
3	0	0	0	0	508	458
4	0	0	0	0	510	469
5	0	0	0	0	507	488
6	0	0	0	0	508	503
7	0	0	0	0	507	513
8	0	0	0	0	507	518
9	0	0	0	0	508	517
10	0	0	0	0	507	518
11	0	0	0	0	506	516
12	0	0	0	0	506	518
13	0	0	0	0	506	517
14	0	0	0	0	506	514
15	0	0	0	0	505	515
0	0	0	0	0	505	514
1	0	0	0	0	507	514
2	0	0	0	0	508	517
3	0	0	0	0	508	520
4	0	0	0	0	508	520
5	0	0	0	0	507	519
6	0	0	0	0	507	519
7	0	0	0	0	507	512
8	0	0	0	0	506	503
9	0	0	0	0	508	495
10	0	0	0	0	508	489
11	0	0	0	0	508	489
12	0	0	0	0	507	489
13	0	0	0	0	507	490
14	0	0	0	0	508	499
15	0	0	0	0	509	507
0	0	0	0	0	506	511
1	0	0	0	0	505	514
2	0	0	0	0	505	514
3	0	0	0	0	506	512
4	0	0	0	0	503	512
5	0	0	0	0	504	511
6	0	0	0	0	506	507
7	0	0	0	0	506	505
8	0	0	0	0	507	505
9	0	0	0	0	505	504
10	0	0	0	0	505	503
11	0	0	0	0	505	504
12	0	0	0	0	504	504
13	0	0	0	0	505	507
14	0	0	0	0	507	508
15	0	0	0	0	510	508
0	0	0	0	0	508	508
1	0	0	0	0	507	509
2	0	0	0	0	507	508
3	0	0	0	0	505	507
4	0	0	0	0	506	507
5	0	0	0	0	509	508
6	0	0	0	0	507	512
7	0	0	0	0	509	511
8	0	0	0	0	509	512
9	0	0	0	0	507	513
10	0	0	0	0	508	512
11	0	0	0	0	508	506
12	0	0	0	0	507	501
13	0	0	0	0	508	498
14	0	0	0	0	508	498
15	0	0	0	0	507	497
0	0	0	0	0	505	500
1	0	0	0	0	507	506
2	0	0	0	0	508	511
3	0	0	0	0	510	510
4	0	0	0	0	509	511
5	0	0	0	0	510	519
6	0	0	0	0	508	516
7	0	0	0	0	508	511
8	0	0	0	0	505	521
9	0	0	0	0	508	524
10	0	0	0	0	506	515
11	0	0	0	0	506	503
12	0	0	0	0	507	495
13	0	0	0	0	507	486
14	0	0	0	0	505	480
15	0	0	0	0	505	476
0	0	0	0	0	508	481
1	0	0	0	0	506	485
2	0	0	0	0	507	497
3	0	0	0	0	506	507
4	0	0	0	0	504	511
5	0	0	0	0	506	512
6	0	0	0	0	504	517
7	0	0	0	0	509	519
8	0	0	0	0	505	518
9	0	0	0	0	507	515
10	0	0	0	0	506	515
11	0	0	0	0	508	513
12	0	0	0	0	508	512
13	0	0	0	0	507	511
14	0	0	0	0	505	512
15	0	0	0	0	508	513
0	0	0	0	0	506	514
1	0	0	0	0	504	515
2	0	0	0	0	507	516
3	0	0	0	0	505	516
4	0	0	0	0	508	516
5	0	0	0	0	508	515
6	0	0	0	0	506	505
7	0	0	0	0	507	494
8	0	0	0	0	507	488
9	0	0	0	0	507	487
10	0	0	0	0	507	488
11	0	0	0	0	507	493
12	0	0	0	0	509	496
13	0	0	0	0	507	499
14	0	0	0	0	508	507
15	0	0	0	0	508	509
0	0	0	0	0	508	511
1	0	0	0	0	508	513
2	0	0	0	0	505	511
3	0	0	0	0	505	513
4	0	0	0	0	507	509
5	0	0	0	0	505	510
6	0	0	0	0	507	506
7	0	0	0	0	506	511
8	0	0	0	0	505	522
9	0	0	0	0	507	527
10	0	0	0	0	508	526
11	0	0	0	0	508	521
12	0	0	0	0	505	518
13	0	0	0	0	507	507
14	0	0	0	0	506	492
15	0	0	0	0	508	483
0	0	0	0	0	509	478
1	0	0	0	0	507	485
2	0	0	0	0	509	492
3	0	0	0	0	508	499
4	0	0	0	0	508	504
5	0	0	0	0	508	510
6	0	0	0	0	505	513
7	0	0	0	0	504	516
8	0	0	0	0	505	516
9	0	0	0	0	507	514
10	0	0	0	0	507	515
11	0	0	0	0	507	512
12	0	0	0	0	504	511
13	0	0	0	0	504	515
14	0	0	0	0	507	514
15	0	0	0	0	508	518
0	0	0	0	0	506	515
1	0	0	0	0	506	512
2	0	0	0	0	505	505
3	0	0	0	0	507	512
4	0	0	0	0	508	517
5	0	0	0	0	506	515
6	0	0	0	0	507	507
7	0	0	0	0	507	499
8	0	0	0	0	509	498
9	0	0	0	0	508	496
10	0	0	0	0	506	491
11	0	0	0	0	509	494
12	0	0	0	0	509	498
13	0	0	0	0	510	498
14	0	0	0	0	508	500
15	0	0	0	0	508	499
0	0	0	0	0	505	501
1	0	0	0	0	509	507
2	0	0	0	0	507	507
3	0	0	0	0	508	510
4	0	0	0	0	506	513
5	0	0	0	0	505	515
6	0	0	0	0	505	517
7	0	0	0	0	507	515
8	0	0	0	0	509	511
9	0	0	0	0	507	508
10	0	0	0	0	508	500
11	0	0	0	0	507	496
12	0	0	0	0	504	496
13	0	0	0	0	506	499
14	0	0	0	0	507	504
15	0	0	0	0	506	510
0	0	0	0	0	504	514
1	0	0	0	0	505	519
2	0	0	0	0	507	520
3	0	0	0	0	504	523
4	0	0	0	0	505	523
5	0	0	0	0	504	513
6	0	0	0	0	506	503
7	0	0	0	0	506	494
8	0	0	0	0	508	485
9	0	0	0	0	510	482
10	0	0	0	0	506	486
11	0	0	0	0	506	489
12	0	0	0	0	507	497
13	0	0	0	0	508	505
14	0	0	0	0	507	508
15	0	0	0	0	508	512
0	0	0	0	0	507	513
1	0	0	0	0	508	512
2	0	0	0	0	508	511
3	0	0	0	0	505	512
4	0	0	0	0	507	512
5	0	0	0	0	507	512
6	0	0	0	0	508	513
7	0	0	0	0	506	516
8	0	0	0	0	507	519
9	0	0	0	0	507	513
10	0	0	0	0	506	513
11	0	0	0	0	508	510
12	0	0	0	0	508	508
13	0	0	0	0	507	505
14	0	0	0	0	505	507
15	0	0	0	0	508	508
0	0	0	0	0	507	514
1	0	0	0	0	507	516
2	0	0	0	0	507	514
3	0	0	0	0	505	515
4	0	0	0	0	506	510
5	0	0	0	0	506	502
6	0	0	0	0	507	494
7	0	0	0	0	505	486
8	0	0	0	0	507	487
9	0	0	0	0	506	487
10	0	0	0	0	508	493
11	0	0	0	0	508	496
12	0	0	0	0	508	501
13	0	0	0	0	507	505
14	0	0	0	0	509	508
15	0	0	0	0	507	509
0	0	0	0	0	508	514
1	0	0	0	0	506	519
2	0	0	0	0	506	517
3	0	0	0	0	506	520
4	0	0	0	0	507	520
5	0	0	0	0	506	515
6	0	0	0	0	505	513
7	0	0	0	0	508	504
8	0	0	0	0	508	499
9	0	0	0	0	508	496
10	0	0	0	0	507	495
11	0	0	0	0	506	497
12	0	0	0	0	505	501
13	0	0	0	0	505	507
14	0	0	0	0	506	513
15	0	0	0	0	507	516
0	0	0	0	0	507	515
1	0	0	0	0	507	512
2	0	0	0	0	508	508
3	0	0	0	0	508	505
4	0	0	0	0	507	502
5	0	0	0	0	507	502
6	0	0	0	0	506	503
7	0	0	0	0	505	506
8	0	0	0	0	509	507
9	0	0	0	0	506	510
10	0	0	0	0	507	510
11	0	0	0	0	505	511
12	0	0	0	0	508	511
13	0	0	0	0	506	510
14	0	0	0	0	507	507
15	0	0	0	0	508	508
0	0	0	0	0	506	515
1	0	0	0	0	504	519
2	0	0	0	0	507	519
3	0	0	0	0	508	516
4	0	0	0	0	509	523
5	0	0	0	0	508	520
6	0	0	0	0	505	509
7	0	0	0	0	506	497
8	0	0	0	0	505	488
9	0	0	0	0	506	483
10	0	0	0	0	507	479
11	0	0	0	0	505	478
12	0	0	0	0	508	482
13	0	0	0	0	507	491
14	0	0	0	0	509	504
15	0	0	0	0	507	508
0	0	0	0	0	508	513
1	0	0	0	0	508	511
2	0	0	0	0	507	512
3	0	0	0	0	505	511
4	0	0	0	0	505	515
5	0	0	0	0	507	513
6	0	0	0	0	510	512
7	0	0	0	0	508	514
8	0	0	0	0	510	518
9	0	0	0	0	509	516
10	0	0	0	0	508	516
11	0	0	0	0	510	518
12	0	0	0	0	507	522
13	0	0	0	0	505	521
14	0	0	0	0	505	524
15	0	0	0	0	505	515
0	0	0	0	0	504	502
1	0	0	0	0	508	492
2	0	0	0	0	507	483
3	0	0	0	0	505	476
4	0	0	0	0	508	473
5	0	0	0	0	508	481
6	0	0	0	0	507	498
7	0	0	0	0	506	506
8	0	0	0	0	508	512
9	0	0	0	0	507	511
10	0	0	0	0	508	508
11	0	0	0	0	507	508
12	0	0	0	0	506	509
13	0	0	0	0	507	511
14	0	0	0	0	505	511
15	0	0	0	0	507	512
0	0	0	0	0	508	513
1	0	0	0	0	508	512
2	0	0	0	0	509	514
3	0	0	0	0	507	514
4	0	0	0	0	506	512
5	0	0	0	0	504	508
6	0	0	0	0	508	509
7	0	0	0	0	506	510
8	0	0	0	0	507	510
9	0	0	0	0	505	508
10	0	0	0	0	508	507
11	0	0	0	0	509	508
12	0	0	0	0	507	504
13	0	0	0	0	507	510
14	0	0	0	0	507	508
15	0	0	0	0	505	509
0	0	0	0	0	508	510
1	0	0	0	0	508	516
2	0	0	0	0	506	518
3	0	0	0	0	506	512
4	0	0	0	0	509	509
5	0	0	0	0	507	505
6	0	0	0	0	505	499
7	0	0	0	0	506	496
8	0	0	0	0	505	499
9	0	0	0	0	506	505
10	0	0	0	0	505	512
11	0	0	0	0	505	508
12	0	0	0	0	507	507
13	0	0	0	0	508	511
14	0	0	0	0	505	516
15	0	0	0	0	508	516
0	0	0	0	0	508	507
1	0	0	0	0	505	502
2	0	0	0	0	507	496
3	0	0	0	0	506	488
4	0	0	0	0	507	486
5	0	0	0	0	507	486
6	0	0	0	0	506	491
7	0	0	0	0	506	500
8	0	0	0	0	505	507
9	0	0	0	0	506	515
10	0	0	0	0	507	516
11	0	0	0	0	508	514
12	0	0	0	0	509	513
13	0	0	0	0	508	513
14	0	0	0	0	509	515
15	0	0	0	0	507	513
0	0	0	0	0	507	514
1	0	0	0	0	508	517
2	0	0	0	0	504	513
3	0	0	0	0	507	511
4	0	0	0	0	507	510
5	0	0	0	0	509	504
6	0	0	0	0	506	501
7	0	0	0	0	507	499
8	0	0	0	0	507	500
9	0	0	0	0	507	503
10	0	0	0	0	506	508
11	0	0	0	0	507	513
12	0	0	0	0	504	508
13	0	0	0	0	507	507
14	0	0	0	0	504	503
15	0	0	0	0	507	505
0	0	0	0	0	506	506
1	0	0	0	0	508	509
2	0	0	0	0	507	510
3	0	0	0	0	508	510
4	0	0	0	0	508	509
5	0	0	0	0	509	506
6	0	0	0	0	510	505
7	0	0	0	0	511	501
8	0	0	0	0	508	505
9	0	0	0	0	508	511
10	0	0	0	0	507	512
11	0	0	0	0	506	511
12	0	0	0	0	508	508
13	0	0	0	0	507	505
14	0	0	0	0	507	505
15	0	0	0	0	508	504
0	0	0	0	0	507	505
1	0	0	0	0	505	503
2	0	0	0	0	505	507
3	0	0	0	0	505	508
4	0	0	0	0	505	510
5	0	0	0	0	504	511
6	0	0	0	0	508	512
7	0	0	0	0	508	509
8	0	0	0	0	508	509
9	0	0	0	0	507	508
10	0	0	0	0	507	507
11	0	0	0	0	505	508
12	0	0	0	0	506	513
13	0	0	0	0	505	511
14	0	0	0	0	508	509
15	0	0	0	0	507	507
0	0	0	0	0	507	503
1	0	0	0	0	508	497
2	0	0	0	0	508	492
3	0	0	0	0	508	496
4	0	0	0	0	506	497
5	0	0	0	0	508	502
6	0	0	0	0	505	506
7	0	0	0	0	505	508
8	0	0	0	0	505	511
9	0	0	0	0	505	516
10	0	0	0	0	507	517
11	0	0	0	0	506	518
12	0	0	0	0	506	516
13	0	0	0	0	507	511
14	0	0	0	0	506	506
15	0	0	0	0	505	502
0	0	0	0	0	506	504
1	0	0	0	0	505	502
2	0	0	0	0	510	497
3	0	0	0	0	508	498
4	0	0	0	0	507	507
5	0	0	0	0	506	510
6	0	0	0	0	505	507
7	0	0	0	0	508	502
8	0	0	0	0	508	497
9	0	0	0	0	507	498
10	0	0	0	0	507	500
11	0	0	0	0	508	505
12	0	0	0	0	507	509
13	0	0	0	0	508	511
14	0	0	0	0	508	513
15	0	0	0	0	505	513
0	0	0	0	0	506	512
1	0	0	0	0	505	513
2	0	0	0	0	506	511
3	0	0	0	0	507	511
4	0	0	0	0	507	516
5	0	0	0	0	507	519
6	0	0	0	0	507	519
7	0	0	0	0	508	522
8	0	0	0	0	506	520
9	0	0	0	0	506	511
10	0	0	0	0	508	503
11	0	0	0	0	508	494
12	0	0	0	0	509	486
13	0	0	0	0	507	487
14	0	0	0	0	505	487
15	0	0	0	0	506	488
0	0	0	0	0	509	496
1	0	0	0	0	507	501
2	0	0	0	0	506	508
3	0	0	0	0	506	511
4	0	0	0	0	505	513
5	0	0	0	0	504	518
6	0	0	0	0	507	515
7	0	0	0	0	506	515
8	0	0	0	0	508	518
9	0	0	0	0	508	518
10	0	0	0	0	505	512
11	0	0	0	0	506	506
12	0	0	0	0	508	500
13	0	0	0	0	507	496
14	0	0	0	0	508	495
15	0	0	0	0	507	500
0	0	0	0	0	508	506
1	0	0	0	0	509	512
2	0	0	0	0	508	517
3	0	0	0	0	508	515
4	0	0	0	0	508	514
5	0	0	0	0	508	513
6	0	0	0	0	507	515
7	0	0	0	0	505	506
8	0	0	0	0	506	500
9	0	0	0	0	504	504
10	0	0	0	0	508	501
11	0	0	0	0	506	500
12	0	0	0	0	508	501
13	0	0	0	0	506	502
14	0	0	0	0	507	503
15	0	0	0	0	505	507
0	0	0	0	0	509	507
1	0	0	0	0	508	505
2	0	0	0	0	508	506
3	0	0	0	0	508	508
4	0	0	0	0	506	510
5	0	0	0	0	505	513
6	0	0	0	0	505	517
7	0	0	0	0	509	519
8	0	0	0	0	507	519
9	0	0	0	0	508	515
10	0	0	0	0	507	508
11	0	0	0	0	507	505
12	0	0	0	0	509	499
13	0	0	0	0	507	498
14	0	0	0	0	508	496
15	0	0	0	0	507	499
0	0	0	0	0	507	503
1	0	0	0	0	506	507
2	0	0	0	0	507	510
3	0	0	0	0	504	511
4	0	0	0	0	505	511
5	0	0	0	0	505	511
6	0	0	0	0	508	507
7	0	0	0	0	507	509
8	0	0	0	0	505	513
9	0	0	0	0	505	514
10	0	0	0	0	507	513
11	0	0	0	0	507	510
12	0	0	0	0	504	506
13	0	0	0	0	508	500
14	0	0	0	0	510	496
15	0	0	0	0	508	493
0	0	0	0	0	509	496
1	0	0	0	0	508	499
2	0	0	0	0	507	504
3	0	0	0	0	509	508
4	0	0	0	0	505	509
5	0	0	0	0	508	511
6	0	0	0	0	508	510
7	0	0	0	0	506	511
8	0	0	0	0	507	509
9	0	0	0	0	506	514
10	0	0	0	0	506	520
11	0	0	0	0	505	520
12	0	0	0	0	505	515
13	0	0	0	0	507	508
14	0	0	0	0	506	502
15	0	0	0	0	507	499
0	0	0	0	0	507	499
1	0	0	0	0	505	504
2	0	0	0	0	508	508
3	0	0	0	0	506	521
4	0	0	0	0	509	531
5	0	0	0	0	507	522
6	0	0	0	0	505	507
7	0	0	0	0	507	497
8	0	0	0	0	508	486
9	0	0	0	0	507	472
10	0	0	0	0	507	471
11	0	0	0	0	508	478
12	0	0	0	0	505	485
13	0	0	0	0	505	501
14	0	0	0	0	507	511
15	0	0	0	0	508	513
0	0	0	0	0	510	513
1	0	0	0	0	510	518
2	0	0	0	0	509	517
3	0	0	0	0	507	516
4	0	0	0	0	506	515
5	0	0	0	0	506	513
6	0	0	0	0	507	515
7	0	0	0	0	505	508
8	0	0	0	0	505	508
9	0	0	0	0	505	509
10	0	0	0	0	506	512
11	0	0	0	0	507	526
12	0	0	0	0	507	529
13	0	0	0	0	505	524
14	0	0	0	0	506	515
15	0	0	0	0	508	504
0	0	0	0	0	506	497
1	0	0	0	0	505	494
2	0	0	0	0	507	489
3	0	0	0	0	509	495
4	0	0	0	0	509	500
5	0	0	0	0	509	502
6	0	0	0	0	508	499
7	0	0	0	0	509	499
8	0	0	0	0	508	495
9	0	0	0	0	509	496
10	0	0	0	0	508	496
11	0	0	0	0	508	504
12	0	0	0	0	505	507
13	0	0	0	0	507	511
14	0	0	0	0	508	513
15	0	0	0	0	507	515
0	0	0	0	0	507	512
1	0	0	0	0	507	511
2	0	0	0	0	508	511
3	0	0	0	0	505	510
4	0	0	0	0	505	509
5	0	0	0	0	504	510
6	0	0	0	0	508	509
7	0	0	0	0	505	510
8	0	0	0	0	504	511
9	0	0	0	0	508	511
10	0	0	0	0	505	510
11	0	0	0	0	507	510
12	0	0	0	0	507	506
13	0	0	0	0	508	506
14	0	0	0	0	505	504
15	0	0	0	0	507	504
0	0	0	0	0	506	505
1	0	0	0	0	505	505
2	0	0	0	0	506	507
3	0	0	0	0	508	508
4	0	0	0	0	507	509
5	0	0	0	0	506	509
6	0	0	0	0	507	506
7	0	0	0	0	507	503
8	0	0	0	0	508	503
9	0	0	0	0	509	500
10	0	0	0	0	507	501
11	0	0	0	0	507	504
12	0	0	0	0	507	509
13	0	0	0	0	505	507
14	0	0	0	0	506	508
15	0	0	0	0	508	511
0	0	0	0	0	505	515
1	0	0	0	0	504	514
2	0	0	0	0	506	521
3	0	0	0	0	508	520
4	0	0	0	0	507	515
5	0	0	0	0	508	513
6	0	0	0	0	505	508
7	0	0	0	0	507	504
8	0	0	0	0	508	502
9	0	0	0	0	508	509
10	0	0	0	0	508	513
11	0	0	0	0	508	508
12	0	0	0	0	508	499
13	0	0	0	0	508	486
14	0	0	0	0	508	481
15	0	0	0	0	508	477
0	0	0	0	0	507	480
1	0	0	0	0	507	489
2	0	0	0	0	505	499
3	0	0	0	0	508	507
4	0	0	0	0	506	514
5	0	0	0	0	507	517
6	0	0	0	0	505	517
7	0	0	0	0	508	520
8	0	0	0	0	506	518
9	0	0	0	0	507	513
10	0	0	0	0	505	516
11	0	0	0	0	507	525
12	0	0	0	0	507	523
13	0	0	0	0	506	519
14	0	0	0	0	505	513
15	0	0	0	0	505	505
0	0	0	0	0	506	500
1	0	0	0	0	507	491
2	0	0	0	0	506	494
3	0	0	0	0	508	500
4	0	0	0	0	507	507
5	0	0	0	0	506	505
6	0	0	0	0	506	504
7	0	0	0	0	508	501
8	0	0	0	0	509	496
9	0	0	0	0	508	493
10	0	0	0	0	507	494
11	0	0	0	0	510	496
12	0	0	0	0	509	504
13	0	0	0	0	506	511
14	0	0	0	0	507	513
15	0	0	0	0	506	515
0	0	0	0	0	508	518
1	0	0	0	0	505	514
2	0	0	0	0	505	515
3	0	0	0	0	507	515
4	0	0	0	0	505	515
5	0	0	0	0	505	513
6	0	0	0	0	504	515
7	0	0	0	0	507	513
8	0	0	0	0	508	509
9	0	0	0	0	506	509
10	0	0	0	0	508	509
11	0	0	0	0	507	512
12	0	0	0	0	510	510
13	0	0	0	0	510	512
14	0	0	0	0	507	512
15	0	0	0	0	507	514
0	0	0	0	0	507	520
1	0	0	0	0	507	524
2	0	0	0	0	506	527
3	0	0	0	0	507	526
4	0	0	0	0	507	519
5	0	0	0	0	508	507
6	0	0	0	0	507	494
7	0	0	0	0	507	487
8	0	0	0	0	507	477
9	0	0	0	0	506	469
10	0	0	0	0	506	474
11	0	0	0	0	505	481
12	0	0	0	0	504	488
13	0	0	0	0	505	496
14	0	0	0	0	505	504
15	0	0	0	0	506	506
0	0	0	0	0	509	510
1	0	0	0	0	508	512
2	0	0	0	0	507	512
3	0	0	0	0	508	511
4	0	0	0	0	507	513
5	0	0	0	0	507	514
6	0	0	0	0	507	515
7	0	0	0	0	505	518
8	0	0	0	0	509	516
9	0	0	0	0	506	517
10	0	0	0	0	508	513
11	0	0	0	0	508	507
12	0	0	0	0	507	501
13	0	0	0	0	505	499
14	0	0	0	0	506	496
15	0	0	0	0	509	497
0	0	0	0	0	507	499
1	0	0	0	0	509	504
2	0	0	0	0	508	511
3	0	0	0	0	507	514
4	0	0	0	0	508	512
5	0	0	0	0	508	508
6	0	0	0	0	508	506
7	0	0	0	0	508	507
8	0	0	0	0	508	507
9	0	0	0	0	509	505
10	0	0	0	0	505	506
11	0	0	0	0	504	514
12	0	0	0	0	507	518
13	0	0	0	0	505	516
14	0	0	0	0	505	510
15	0	0	0	0	507	511
0	0	0	0	0	508	505
1	0	0	0	0	507	504
2	0	0	0	0	505	502
3	0	0	0	0	505	498
4	0	0	0	0	507	499
5	0	0	0	0	506	501
6	0	0	0	0	505	503
7	0	0	0	0	507	504
8	0	0	0	0	505	506
9	0	0	0	0	507	510
10	0	0	0	0	508	512
11	0	0	0	0	506	513
12	0	0	0	0	508	511
13	0	0	0	0	508	511
14	0	0	0	0	511	510
15	0	0	0	0	507	508
0	0	0	0	0	508	500
1	0	0	0	0	510	499
2	0	0	0	0	508	497
3	0	0	0	0	505	498
4	0	0	0	0	507	507
5	0	0	0	0	507	513
6	0	0	0	0	508	526
7	0	0	0	0	505	534
8	0	0	0	0	506	532
9	0	0	0	0	506	527
10	0	0	0	0	505	515
11	0	0	0	0	504	505
12	0	0	0	0	506	487
13	0	0	0	0	505	473
14	0	0	0	0	508	472
15	0	0	0	0	506	472
0	0	0	0	0	507	477
1	0	0	0	0	507	490
2	0	0	0	0	507	497
3	0	0	0	0	507	507
4	0	0	0	0	508	510
5	0	0	0	0	509	515
6	0	0	0	0	506	518
7	0	0	0	0	506	521
8	0	0	0	0	508	523
9	0	0	0	0	504	524
10	0	0	0	0	507	521
11	0	0	0	0	509	515
12	0	0	0	0	506	510
13	0	0	0	0	508	507
14	0	0	0	0	508	512
15	0	0	0	0	507	517
0	0	0	0	0	507	518
1	0	0	0	0	507	513
2	0	0	0	0	509	512
3	0	0	0	0	508	508
4	0	0	0	0	508	503
5	0	0	0	0	507	496
6	0	0	0	0	507	497
7	0	0	0	0	508	495
8	0	0	0	0	506	496
9	0	0	0	0	507	499
10	0	0	0	0	505	499
11	0	0	0	0	507	504
12	0	0	0	0	506	507
13	0	0	0	0	506	508
14	0	0	0	0	508	511
15	0	0	0	0	505	510
0	0	0	0	0	508	510
1	0	0	0	0	507	509
2	0	0	0	0	508	511
3	0	0	0	0	506	511
4	0	0	0	0	507	509
5	0	0	0	0	506	511
6	0	0	0	0	507	512
7	0	0	0	0	505	512
8	0	0	0	0	506	512
9	0	0	0	0	508	516
10	0	0	0	0	508	516
11	0	0	0	0	510	513
12	0	0	0	0	506	510
13	0	0	0	0	507	507
14	0	0	0	0	506	500
15	0	0	0	0	505	495
0	0	0	0	0	507	492
1	0	0	0	0	506	492
2	0	0	0	0	506	494
3	0	0	0	0	507	498
4	0	0	0	0	508	507
5	0	0	0	0	508	508
6	0	0	0	0	509	510
7	0	0	0	0	507	511
8	0	0	0	0	509	508
9	0	0	0	0	508	505
10	0	0	0	0	507	509
11	0	0	0	0	504	514
12	0	0	0	0	505	524
13	0	0	0	0	504	527
14	0	0	0	0	507	523
15	0	0	0	0	505	519
0	0	0	0	0	508	510
1	0	0	0	0	505	505
2	0	0	0	0	510	499
3	0	0	0	0	507	484
4	0	0	0	0	510	477
5	0	0	0	0	508	478
6	0	0	0	0	508	481
7	0	0	0	0	510	486
8	0	0	0	0	508	493
9	0	0	0	0	508	502
10	0	0	0	0	506	512
11	0	0	0	0	507	513
12	0	0	0	0	506	512
13	0	0	0	0	504	516
14	0	0	0	0	504	516
15	0	0	0	0	507	518
0	0	0	0	0	508	516
1	0	0	0	0	505	515
2	0	0	0	0	505	514
3	0	0	0	0	507	512
4	0	0	0	0	504	512
5	0	0	0	0	508	510
6	0	0	0	0	508	513
7	0	0	0	0	509	511
8	0	0	0	0	508	510
9	0	0	0	0	507	510
10	0	0	0	0	508	511
11	0	0	0	0	507	510
12	0	0	0	0	508	511
13	0	0	0	0	507	509
14	0	0	0	0	506	508
15	0	0	0	0	505	509
0	0	0	0	0	508	508
1	0	0	0	0	505	507
2	0	0	0	0	507	504
3	0	0	0	0	507	505
4	0	0	0	0	506	505
5	0	0	0	0	506	505
6	0	0	0	0	509	499
7	0	0	0	0	507	502
8	0	0	0	0	508	501
9	0	0	0	0	508	501
10	0	0	0	0	507	497
11	0	0	0	0	506	499
12	0	0	0	0	506	502
13	0	0	0	0	506	505
14	0	0	0	0	508	508
15	0	0	0	0	506	509
0	0	0	0	0	506	512
1	0	0	0	0	507	510
2	0	0	0	0	508	512
3	0	0	0	0	507	513
4	0	0	0	0	506	515
5	0	0	0	0	509	513
6	0	0	0	0	505	516
7	0	0	0	0	504	515
8	0	0	0	0	505	513
9	0	0	0	0	507	510
10	0	0	0	0	507	508
11	0	0	0	0	505	511
12	0	0	0	0	508	510
13	0	0	0	0	507	509
14	0	0	0	0	510	505
15	0	0	0	0	511	500
0	0	0	0	0	508	495
1	0	0	0	0	507	493
2	0	0	0	0	508	491
3	0	0	0	0	508	484
4	0	0	0	0	505	492
5	0	0	0	0	506	499
6	0	0	0	0	506	504
7	0	0	0	0	508	507
8	0	0	0	0	507	507
9	0	0	0	0	506	511
10	0	0	0	0	508	509
11	0	0	0	0	507	515
12	0	0	0	0	507	528
13	0	0	0	0	508	527
14	0	0	0	0	505	518
15	0	0	0	0	506	508
0	0	0	0	0	505	501
1	0	0	0	0	505	502
2	0	0	0	0	506	496
3	0	0	0	0	506	493
4	0	0	0	0	505	495
5	0	0	0	0	505	500
6	0	0	0	0	507	503
7	0	0	0	0	509	501
8	0	0	0	0	511	500
9	0	0	0	0	508	502
10	0	0	0	0	508	507
11	0	0	0	0	508	510
12	0	0	0	0	506	512
13	0	0	0	0	506	513
14	0	0	0	0	507	515
15	0	0	0	0	508	515
0	0	0	0	0	507	517
1	0	0	0	0	506	518
2	0	0	0	0	505	515
3	0	0	0	0	507	517
4	0	0	0	0	506	512
5	0	0	0	0	506	511
6	0	0	0	0	508	510
7	0	0	0	0	507	513
8	0	0	0	0	506	515
9	0	0	0	0	507	507
10	0	0	0	0	507	502
11	0	0	0	0	509	496
12	0	0	0	0	508	491
13	0	0	0	0	505	489
14	0	0	0	0	507	489
15	0	0	0	0	507	494
0	0	0	0	0	505	500
1	0	0	0	0	505	504
2	0	0	0	0	505	506
3	0	0	0	0	505	511
4	0	0	0	0	508	511
5	0	0	0	0	507	510
6	0	0	0	0	507	513
7	0	0	0	0	505	512
8	0	0	0	0	509	511
9	0	0	0	0	508	509
10	0	0	0	0	509	506
11	0	0	0	0	507	512
12	0	0	0	0	505	515
13	0	0	0	0	504	513
14	0	0	0	0	506	508
15	0	0	0	0	508	505
0	0	0	0	0	507	511
1	0	0	0	0	508	512
2	0	0	0	0	507	511
3	0	0	0	0	507	509
4	0	0	0	0	507	509
5	0	0	0	0	504	508
6	0	0	0	0	506	503
7	0	0	0	0	508	502
8	0	0	0	0	509	499
9	0	0	0	0	509	496
10	0	0	0	0	509	498
11	0	0	0	0	508	501
12	0	0	0	0	507	505
13	0	0	0	0	508	509
14	0	0	0	0	507	508
15	0	0	0	0	507	509
0	0	0	0	0	507	512
1	0	0	0	0	507	523
2	0	0	0	0	508	536
3	0	0	0	0	508	527
4	0	0	0	0	506	509
5	0	0	0	0	507	498
6	0	0	0	0	505	486
7	0	0	0	0	505	477
8	0	0	0	0	507	472
9	0	0	0	0	507	472
10	0	0	0	0	508	485
11	0	0	0	0	508	501
12	0	0	0	0	507	510
13	0	0	0	0	505	517
14	0	0	0	0	505	519
15	0	0	0	0	506	518
0	0	0	0	0	504	516
1	0	0	0	0	505	516
2	0	0	0	0	507	516
3	0	0	0	0	505	517
4	0	0	0	0	506	514
5	0	0	0	0	508	515
6	0	0	0	0	508	518
7	0	0	0	0	508	515
8	0	0	0	0	508	510
9	0	0	0	0	507	515
10	0	0	0	0	507	513
11	0	0	0	0	508	506
12	0	0	0	0	508	502
13	0	0	0	0	507	496
14	0	0	0	0	507	491
15	0	0	0	0	507	494
0	0	0	0	0	505	494
1	0	0	0	0	506	502
2	0	0	0	0	507	507
3	0	0	0	0	506	512
4	0	0	0	0	507	515
5	0	0	0	0	507	510
6	0	0	0	0	506	511
7	0	0	0	0	509	508
8	0	0	0	0	508	507
9	0	0	0	0	505	511
10	0	0	0	0	508	510
11	0	0	0	0	507	507
12	0	0	0	0	507	503
13	0	0	0	0	507	502
14	0	0	0	0	506	499
15	0	0	0	0	508	500
0	0	0	0	0	508	503
1	0	0	0	0	505	506
2	0	0	0	0	505	511
3	0	0	0	0	508	513
4	0	0	0	0	508	514
5	0	0	0	0	507	511
6	0	0	0	0	506	509
7	0	0	0	0	505	508
8	0	0	0	0	506	510
9	0	0	0	0	506	510
10	0	0	0	0	507	508
11	0	0	0	0	507	506
12	0	0	0	0	508	508
13	0	0	0	0	510	507
14	0	0	0	0	508	504
15	0	0	0	0	507	505
0	0	0	0	0	508	506
1	0	0	0	0	506	507
2	0	0	0	0	505	513
3	0	0	0	0	506	523
4	0	0	0	0	506	522
5	0	0	0	0	506	518
6	0	0	0	0	507	516
7	0	0	0	0	506	511
8	0	0	0	0	508	500
9	0	0	0	0	509	496
10	0	0	0	0	505	492
11	0	0	0	0	507	489
12	0	0	0	0	508	490
13	0	0	0	0	507	498
14	0	0	0	0	508	503
15	0	0	0	0	508	504
0	0	0	0	0	508	508
1	0	0	0	0	507	510
2	0	0	0	0	506	510
3	0	0	0	0	507	506
4	0	0	0	0	505	502
5	0	0	0	0	507	505
6	0	0	0	0	507	506
7	0	0	0	0	506	506
8	0	0	0	0	507	503
9	0	0	0	0	508	499
10	0	0	0	0	505	500
11	0	0	0	0	504	504
12	0	0	0	0	506	503
13	0	0	0	0	505	509
14	0	0	0	0	509	510
15	0	0	0	0	507	512
0	0	0	0	0	508	512
1	0	0	0	0	507	510
2	0	0	0	0	508	510
3	0	0	0	0	507	506
4	0	0	0	0	507	506
5	0	0	0	0	508	504
6	0	0	0	0	507	508
7	0	0	0	0	505	512
8	0	0	0	0	508	514
9	0	0	0	0	507	511
10	0	0	0	0	508	510
11	0	0	0	0	508	507
12	0	0	0	0	508	505
13	0	0	0	0	505	507
14	0	0	0	0	506	505
15	0	0	0	0	504	505
0	0	0	0	0	506	506
1	0	0	0	0	506	508
2	0	0	0	0	505	509
3	0	0	0	0	509	509
4	0	0	0	0	510	510
5	0	0	0	0	510	512
6	0	0	0	0	507	517
7	0	0	0	0	505	521
8	0	0	0	0	507	515
9	0	0	0	0	506	511
10	0	0	0	0	507	505
11	0	0	0	0	507	498
12	0	0	0	0	506	496
13	0	0	0	0	504	495
14	0	0	0	0	505	497
15	0	0	0	0	508	499
0	0	0	0	0	507	505
1	0	0	0	0	506	505
2	0	0	0	0	505	508
3	0	0	0	0	507	511
4	0	0	0	0	507	512
5	0	0	0	0	507	515
6	0	0	0	0	507	516
7	0	0	0	0	507	515
8	0	0	0	0	506	510
9	0	0	0	0	504	508
10	0	0	0	0	509	506
11	0	0	0	0	509	505
12	0	0	0	0	506	505
13	0	0	0	0	506	507
14	0	0	0	0	509	508
15	0	0	0	0	506	506
0	0	0	0	0	506	511
1	0	0	0	0	508	510
2	0	0	0	0	508	504
3	0	0	0	0	507	505
4	0	0	0	0	506	504
5	0	0	0	0	506	502
6	0	0	0	0	507	497
7	0	0	0	0	507	495
8	0	0	0	0	506	493
9	0	0	0	0	506	494
10	0	0	0	0	505	493
11	0	0	0	0	505	501
12	0	0	0	0	505	505
13	0	0	0	0	508	511
14	0	0	0	0	508	517
15	0	0	0	0	504	525
0	0	0	0	0	508	526
1	0	0	0	0	508	523
2	0	0	0	0	508	517
3	0	0	0	0	507	516
4	0	0	0	0	507	508
5	0	0	0	0	510	497
6	0	0	0	0	507	493
7	0	0	0	0	508	491
8	0	0	0	0	507	491
9	0	0	0	0	504	496
10	0	0	0	0	505	498
11	0	0	0	0	508	503
12	0	0	0	0	506	509
13	0	0	0	0	506	516
14	0	0	0	0	508	516
15	0	0	0	0	507	515
0	0	0	0	0	506	514
1	0	0	0	0	506	511
2	0	0	0	0	505	510
3	0	0	0	0	504	506
4	0	0	0	0	508	506
5	0	0	0	0	507	507
6	0	0	0	0	506	504
7	0	0	0	0	508	508
8	0	0	0	0	508	508
9	0	0	0	0	508	512
10	0	0	0	0	507	511
11	0	0	0	0	506	513
12	0	0	0	0	507	512
13	0	0	0	0	508	510
14	0	0	0	0	509	510
15	0	0	0	0	507	512
0	0	0	0	0	508	505
1	0	0	0	0	506	501
2	0	0	0	0	505	502
3	0	0	0	0	505	503
4	0	0	0	0	504	505
5	0	0	0	0	508	505
6	0	0	0	0	508	504
7	0	0	0	0	506	508
8	0	0	0	0	505	508
9	0	0	0	0	508	504
10	0	0	0	0	508	507
11	0	0	0	0	507	507
12	0	0	0	0	509	508
13	0	0	0	0	508	512
14	0	0	0	0	507	513
15	0	0	0	0	507	508
0	0	0	0	0	507	502
1	0	0	0	0	505	494
2	0	0	0	0	507	492
3	0	0	0	0	506	493
4	0	0	0	0	505	501
5	0	0	0	0	508	504
6	0	0	0	0	505	507
7	0	0	0	0	506	510
8	0	0	0	0	507	506
9	0	0	0	0	507	508
10	0	0	0	0	509	508
11	0	0	0	0	505	509
12	0	0	0	0	506	507
13	0	0	0	0	505	510
14	0	0	0	0	507	508
15	0	0	0	0	508	510
0	0	0	0	0	507	515
1	0	0	0	0	506	526
2	0	0	0	0	507	530
3	0	0	0	0	508	529
4	0	0	0	0	508	519
5	0	0	0	0	508	505
6	0	0	0	0	508	492
7	0	0	0	0	505	480
8	0	0	0	0	505	477
9	0	0	0	0	507	480
10	0	0	0	0	507	487
11	0	0	0	0	506	495
12	0	0	0	0	504	503
13	0	0	0	0	506	512
14	0	0	0	0	506	521
15	0	0	0	0	505	521
0	0	0	0	0	507	517
1	0	0	0	0	508	517
2	0	0	0	0	509	512
3	0	0	0	0	508	512
4	0	0	0	0	505	510
5	0	0	0	0	508	505
6	0	0	0	0	507	505
7	0	0	0	0	508	509
8	0	0	0	0	509	508
9	0	0	0	0	506	508
10	0	0	0	0	508	508
11	0	0	0	0	504	510
12	0	0	0	0	507	510
13	0	0	0	0	509	510
14	0	0	0	0	507	510
15	0	0	0	0	506	512
0	0	0	0	0	508	513
1	0	0	0	0	508	518
2	0	0	0	0	508	517
3	0	0	0	0	504	518
4	0	0	0	0	507	527
5	0	0	0	0	507	524
6	0	0	0	0	507	516
7	0	0	0	0	508	502
8	0	0	0	0	507	493
9	0	0	0	0	506	481
10	0	0	0	0	505	477
11	0	0	0	0	505	476
12	0	0	0	0	505	480
13	0	0	0	0	506	492
14	0	0	0	0	507	499
15	0	0	0	0	510	505
0	0	0	0	0	509	508
1	0	0	0	0	508	511
2	0	0	0	0	507	511
3	0	0	0	0	504	514
4	0	0	0	0	505	514
5	0	0	0	0	504	510
6	0	0	0	0	505	514
7	0	0	0	0	505	512
8	0	0	0	0	506	513
9	0	0	0	0	506	510
10	0	0	0	0	504	508
11	0	0	0	0	508	506
12	0	0	0	0	507	504
13	0	0	0	0	508	508
14	0	0	0	0	507	505
15	0	0	0	0	508	505
0	0	0	0	0	507	512
1	0	0	0	0	507	513
2	0	0	0	0	507	514
3	0	0	0	0	508	514
4	0	0	0	0	507	513
5	0	0	0	0	507	509
6	0	0	0	0	508	505
7	0	0	0	0	509	504
8	0	0	0	0	508	503
9	0	0	0	0	508	504
10	0	0	0	0	506	504
11	0	0	0	0	508	506
12	0	0	0	0	506	506
13	0	0	0	0	508	505
14	0	0	0	0	508	513
15	0	0	0	0	507	519
0	0	0	0	0	508	514
1	0	0	0	0	510	506
2	0	0	0	0	508	502
3	0	0	0	0	507	495
4	0	0	0	0	504	492
5	0	0	0	0	504	490
6	0	0	0	0	506	494
7	0	0	0	0	506	496
8	0	0	0	0	508	500
9	0	0	0	0	509	502
10	0	0	0	0	508	504
11	0	0	0	0	505	507
12	0	0	0	0	507	513
13	0	0	0	0	508	518
14	0	0	0	0	505	521
15	0	0	0	0	506	520
0	0	0	0	0	505	515
1	0	0	0	0	507	508
2	0	0	0	0	505	504
3	0	0	0	0	508	501
4	0	0	0	0	507	498
5	0	0	0	0	506	499
6	0	0	0	0	504	503
7	0	0	0	0	505	508
8	0	0	0	0	507	512
9	0	0	0	0	507	513
10	0	0	0	0	506	515
11	0	0	0	0	504	515
12	0	0	0	0	505	512
13	0	0	0	0	507	511
14	0	0	0	0	507	509
15	0	0	0	0	509	506
0	0	0	0	0	508	504
1	0	0	0	0	507	503
2	0	0	0	0	508	503
3	0	0	0	0	508	500
4	0	0	0	0	508	498
5	0	0	0	0	508	500
6	0	0	0	0	509	505
7	0	0	0	0	509	505
8	0	0	0	0	507	505
9	0	0	0	0	507	510
10	0	0	0	0	507	514
11	0	0	0	0	508	513
12	0	0	0	0	507	512
13	0	0	0	0	507	512
14	0	0	0	0	507	511
15	0	0	0	0	507	507
0	0	0	0	0	507	504
1	0	0	0	0	506	506
2	0	0	0	0	507	507
3	0	0	0	0	508	511
4	0	0	0	0	505	507
5	0	0	0	0	506	509
6	0	0	0	0	508	511
7	0	0	0	0	505	508
8	0	0	0	0	504	504
9	0	0	0	0	507	500
10	0	0	0	0	507	502
11	0	0	0	0	506	509
12	0	0	0	0	506	515
13	0	0	0	0	506	521
14	0	0	0	0	507	522
15	0	0	0	0	505	515
0	0	0	0	0	506	504
1	0	0	0	0	507	497
2	0	0	0	0	508	499
3	0	0	0	0	508	501
4	0	0	0	0	509	499
5	0	0	0	0	507	497
6	0	0	0	0	510	497
7	0	0	0	0	509	495
8	0	0	0	0	509	495
9	0	0	0	0	508	493
10	0	0	0	0	505	501
11	0	0	0	0	504	511
12	0	0	0	0	507	517
13	0	0	0	0	508	515
14	0	0	0	0	506	511
15	0	0	0	0	506	510
0	0	0	0	0	504	505
1	0	0	0	0	506	504
2	0	0	0	0	507	508
3	0	0	0	0	505	508
4	0	0	0	0	506	511
5	0	0	0	0	506	512
6	0	0	0	0	509	508
7	0	0	0	0	508	500
8	0	0	0	0	506	501
9	0	0	0	0	507	500
10	0	0	0	0	505	505
11	0	0	0	0	505	508
12	0	0	0	0	506	513
13	0	0	0	0	507	515
14	0	0	0	0	508	511
15	0	0	0	0	507	509
0	0	0	0	0	506	512
1	0	0	0	0	505	511
2	0	0	0	0	504	509
3	0	0	0	0	508	508
4	0	0	0	0	508	508
5	0	0	0	0	508	507
6	0	0	0	0	509	506
7	0	0	0	0	507	500
8	0	0	0	0	505	502
9	0	0	0	0	505	507
10	0	0	0	0	506	508
11	0	0	0	0	505	506
12	0	0	0	0	507	505
13	0	0	0	0	508	503
14	0	0	0	0	505	500
15	0	0	0	0	508	497
0	0	0	0	0	504	501
1	0	0	0	0	506	510
2	0	0	0	0	508	511
3	0	0	0	0	506	518
4	0	0	0	0	506	520
5	0	0	0	0	505	519
6	0	0	0	0	508	518
7	0	0	0	0	509	512
8	0	0	0	0	509	507
9	0	0	0	0	507	501
10	0	0	0	0	508	494
11	0	0	0	0	510	492
12	0	0	0	0	507	492
13	0	0	0	0	504	494
14	0	0	0	0	505	496
15	0	0	0	0	505	501
0	0	0	0	0	508	507
1	0	0	0	0	507	516
2	0	0	0	0	506	518
3	0	0	0	0	505	520
4	0	0	0	0	507	520
5	0	0	0	0	504	516
6	0	0	0	0	506	512
7	0	0	0	0	508	509
8	0	0	0	0	508	504
9	0	0	0	0	510	500
10	0	0	0	0	508	506
11	0	0	0	0	508	508
12	0	0	0	0	508	522
13	0	0	0	0	507	528
14	0	0	0	0	508	521
15	0	0	0	0	508	509
0	0	0	0	0	506	498
1	0	0	0	0	507	489
2	0	0	0	0	505	485
3	0	0	0	0	505	488
4	0	0	0	0	507	490
5	0	0	0	0	508	491
6	0	0	0	0	506	503
7	0	0	0	0	507	508
8	0	0	0	0	507	503
9	0	0	0	0	506	499
10	0	0	0	0	509	497
11	0	0	0	0	505	504
12	0	0	0	0	506	512
13	0	0	0	0	508	515
14	0	0	0	0	506	517
15	0	0	0	0	508	520
0	0	0	0	0	508	518
1	0	0	0	0	508	519
2	0	0	0	0	505	513
3	0	0	0	0	505	512
4	0	0	0	0	506	512
5	0	0	0	0	506	513
6	0	0	0	0	506	510
7	0	0	0	0	507	508
8	0	0	0	0	508	507
9	0	0	0	0	507	506
10	0	0	0	0	505	502
11	0	0	0	0	505	499
12	0	0	0	0	507	499
13	0	0	0	0	505	495
14	0	0	0	0	507	495
15	0	0	0	0	508	502
0	0	0	0	0	508	509
1	0	0	0	0	508	511
2	0	0	0	0	507	512
3	0	0	0	0	506	512
4	0	0	0	0	507	510
5	0	0	0	0	506	510
6	0	0	0	0	508	510
7	0	0	0	0	508	515
8	0	0	0	0	506	514
9	0	0	0	0	507	512
10	0	0	0	0	506	508
11	0	0	0	0	506	509
12	0	0	0	0	508	507
13	0	0	0	0	508	502
14	0	0	0	0	507	505
15	0	0	0	0	508	507
0	0	0	0	0	508	508
1	0	0	0	0	508	508
2	0	0	0	0	509	508
3	0	0	0	0	508	511
4	0	0	0	0	508	510
5	0	0	0	0	504	514
6	0	0	0	0	505	513
7	0	0	0	0	508	511
8	0	0	0	0	508	506
9	0	0	0	0	507	499
10	0	0	0	0	507	498
11	0	0	0	0	508	496
12	0	0	0	0	507	499
13	0	0	0	0	507	510
14	0	0	0	0	508	519
15	0	0	0	0	507	519
0	0	0	0	0	506	513
1	0	0	0	0	506	511
2	0	0	0	0	508	503
3	0	0	0	0	508	496
4	0	0	0	0	504	494
5	0	0	0	0	504	506
6	0	0	0	0	507	511
7	0	0	0	0	506	520
8	0	0	0	0	506	519
9	0	0	0	0	509	510
10	0	0	0	0	510	500
11	0	0	0	0	507	496
12	0	0	0	0	506	492
13	0	0	0	0	508	489
14	0	0	0	0	507	495
15	0	0	0	0	507	497
0	0	0	0	0	508	509
1	0	0	0	0	507	516
2	0	0	0	0	507	513
3	0	0	0	0	507	512
4	0	0	0	0	507	510
5	0	0	0	0	505	514
6	0	0	0	0	507	518
7	0	0	0	0	509	513
8	0	0	0	0	505	505
9	0	0	0	0	506	502
10	0	0	0	0	507	499
11	0	0	0	0	504	495
12	0	0	0	0	507	492
13	0	0	0	0	508	497
14	0	0	0	0	506	506
15	0	0	0	0	508	512
0	0	0	0	0	507	517
1	0	0	0	0	508	511
2	0	0	0	0	507	507
3	0	0	0	0	508	504
4	0	0	0	0	506	500
5	0	0	0	0	506	497
6	0	0	0	0	507	502
7	0	0	0	0	508	502
8	0	0	0	0	506	507
9	0	0	0	0	508	513
10	0	0	0	0	506	514
11	0	0	0	0	507	511
12	0	0	0	0	506	512
13	0	0	0	0	507	508
14	0	0	0	0	506	508
15	0	0	0	0	506	508
0	0	0	0	0	506	508
1	0	0	0	0	509	506
2	0	0	0	0	508	505
3	0	0	0	0	506	506
4	0	0	0	0	507	509
5	0	0	0	0	509	513
6	0	0	0	0	507	522
7	0	0	0	0	507	528
8	0	0	0	0	508	531
9	0	0	0	0	508	526
10	0	0	0	0	508	517
11	0	0	0	0	506	507
12	0	0	0	0	506	495
13	0	0	0	0	506	483
14	0	0	0	0	504	483
15	0	0	0	0	505	484
0	0	0	0	0	506	487
1	0	0	0	0	505	494
2	0	0	0	0	507	492
3	0	0	0	0	505	492
4	0	0	0	0	508	497
5	0	0	0	0	508	500
6	0	0	0	0	505	509
7	0	0	0	0	506	515
8	0	0	0	0	508	515
9	0	0	0	0	507	517
10	0	0	0	0	506	523
11	0	0	0	0	507	516
12	0	0	0	0	508	509
13	0	0	0	0	506	501
14	0	0	0	0	505	495
15	0	0	0	0	506	501
0	0	0	0	0	505	511
1	0	0	0	0	505	516
2	0	0	0	0	504	517
3	0	0	0	0	506	516
4	0	0	0	0	506	514
5	0	0	0	0	507	518
6	0	0	0	0	508	525
7	0	0	0	0	508	528
8	0	0	0	0	507	529
9	0	0	0	0	508	518
10	0	0	0	0	509	504
11	0	0	0	0	509	486
12	0	0	0	0	508	472
13	0	0	0	0	507	463
14	0	0	0	0	508	465
15	0	0	0	0	507	478
0	0	0	0	0	507	494
1	0	0	0	0	507	505
2	0	0	0	0	505	513
3	0	0	0	0	504	519
4	0	0	0	0	509	522
5	0	0	0	0	508	521
6	0	0	0	0	508	521
7	0	0	0	0	507	529
8	0	0	0	0	508	527
9	0	0	0	0	508	532
10	0	0	0	0	505	536
11	0	0	0	0	507	532
12	0	0	0	0	505	524
13	0	0	0	0	505	511
14	0	0	0	0	505	500
15	0	0	0	0	507	490
0	0	0	0	0	505	481
1	0	0	0	0	505	476
2	0	0	0	0	508	475
3	0	0	0	0	507	479
4	0	0	0	0	510	487
5	0	0	0	0	509	493
6	0	0	0	0	508	499
7	0	0	0	0	508	508
8	0	0	0	0	506	514
9	0	0	0	0	507	514
10	0	0	0	0	505	511
11	0	0	0	0	508	509
12	0	0	0	0	508	509
13	0	0	0	0	507	510
14	0	0	0	0	506	512
15	0	0	0	0	505	515
0	0	0	0	0	505	519
1	0	0	0	0	507	519
2	0	0	0	0	506	515
3	0	0	0	0	508	514
4	0	0	0	0	506	515
5	0	0	0	0	506	527
6	0	0	0	0	508	536
7	0	0	0	0	508	530
8	0	0	0	0	508	517
9	0	0	0	0	509	499
10	0	0	0	0	508	487
11	0	0	0	0	507	478
12	0	0	0	0	505	474
13	0	0	0	0	507	480
14	0	0	0	0	507	493
15	0	0	0	0	507	503
0	0	0	0	0	505	510
1	0	0	0	0	505	519
2	0	0	0	0	507	531
3	0	0	0	0	504	543
4	0	0	0	0	506	537
5	0	0	0	0	505	526
6	0	0	0	0	508	508
7	0	0	0	0	508	491
8	0	0	0	0	506	475
9	0	0	0	0	507	467
10	0	0	0	0	505	466
11	0	0	0	0	505	474
12	0	0	0	0	506	488
13	0	0	0	0	507	504
14	0	0	0	0	508	515
15	0	0	0	0	508	519
0	0	0	0	0	508	520
1	0	0	0	0	507	519
2	0	0	0	0	508	517
3	0	0	0	0	506	518
4	0	0	0	0	507	519
5	0	0	0	0	509	528
6	0	0	0	0	505	528
7	0	0	0	0	506	523
8	0	0	0	0	507	523
9	0	0	0	0	505	518
10	0	0	0	0	505	507
11	0	0	0	0	508	498
12	0	0	0	0	507	489
13	0	0	0	0	506	487
14	0	0	0	0	510	486
15	0	0	0	0	511	490
0	0	0	0	0	507	504
1	0	0	0	0	507	517
2	0	0	0	0	507	518
3	0	0	0	0	505	521
4	0	0	0	0	505	521
5	0	0	0	0	507	512
6	0	0	0	0	506	503
7	0	0	0	0	507	489
8	0	0	0	0	507	486
9	0	0	0	0	507	490
10	0	0	0	0	508	496
11	0	0	0	0	506	504
12	0	0	0	0	509	507
13	0	0	0	0	508	513
14	0	0	0	0	508	519
15	0	0	0	0	507	515
0	0	0	0	0	506	513
1	0	0	0	0	507	512
2	0	0	0	0	504	508
3	0	0	0	0	506	506
4	0	0	0	0	505	507
5	0	0	0	0	504	509
6	0	0	0	0	507	510
7	0	0	0	0	506	505
8	0	0	0	0	506	504
9	0	0	0	0	507	506
10	0	0	0	0	507	508
11	0	0	0	0	508	508
12	0	0	0	0	510	509
13	0	0	0	0	508	509
14	0	0	0	0	508	513
15	0	0	0	0	505	519
0	0	0	0	0	508	528
1	0	0	0	0	507	531
2	0	0	0	0	507	525
3	0	0	0	0	509	518
4	0	0	0	0	508	505
5	0	0	0	0	508	494
6	0	0	0	0	508	491
7	0	0	0	0	508	486
8	0	0	0	0	508	485
9	0	0	0	0	508	484
10	0	0	0	0	508	488
11	0	0	0	0	507	491
12	0	0	0	0	504	498
13	0	0	0	0	504	502
14	0	0	0	0	504	516
15	0	0	0	0	505	523
0	0	0	0	0	505	518
1	0	0	0	0	505	511
2	0	0	0	0	504	505
3	0	0	0	0	507	497
4	0	0	0	0	506	497
5	0	0	0	0	506	498
6	0	0	0	0	506	504
7	0	0	0	0	507	513
8	0	0	0	0	508	519
9	0	0	0	0	508	529
10	0	0	0	0	505	543
11	0	0	0	0	506	551
12	0	0	0	0	507	545
13	0	0	0	0	508	528
14	0	0	0	0	508	508
15	0	0	0	0	507	485
0	0	0	0	0	506	465
1	0	0	0	0	507	457
2	0	0	0	0	506	455
3	0	0	0	0	509	461
4	0	0	0	0	509	472
5	0	0	0	0	508	487
6	0	0	0	0	507	502
7	0	0	0	0	505	512
8	0	0	0	0	506	519
9	0	0	0	0	504	522
10	0	0	0	0	505	525
11	0	0	0	0	506	524
12	0	0	0	0	504	520
13	0	0	0	0	509	520
14	0	0	0	0	508	519
15	0	0	0	0	507	517
0	0	0	0	0	506	513
1	0	0	0	0	507	513
2	0	0	0	0	508	511
3	0	0	0	0	507	515
4	0	0	0	0	505	522
5	0	0	0	0	508	519
6	0	0	0	0	508	515
7	0	0	0	0	505	514
8	0	0	0	0	506	508
9	0	0	0	0	509	499
10	0	0	0	0	508	492
11	0	0	0	0	506	492
12	0	0	0	0	505	499
13	0	0	0	0	506	501
14	0	0	0	0	509	499
15	0	0	0	0	506	499
0	0	0	0	0	508	501
1	0	0	0	0	508	505
2	0	0	0	0	508	508
3	0	0	0	0	506	513
4	0	0	0	0	507	510
5	0	0	0	0	505	511
6	0	0	0	0	508	510
7	0	0	0	0	508	503
8	0	0	0	0	509	497
9	0	0	0	0	509	499
10	0	0	0	0	510	502
11	0	0	0	0	506	503
12	0	0	0	0	508	503
13	0	0	0	0	509	507
14	0	0	0	0	506	509
15	0	0	0	0	504	511
0	0	0	0	0	505	508
1	0	0	0	0	504	506
2	0	0	0	0	504	513
3	0	0	0	0	507	529
4	0	0	0	0	507	528
5	0	0	0	0	506	526
6	0	0	0	0	508	521
7	0	0	0	0	505	507
8	0	0	0	0	508	496
9	0	0	0	0	508	486
10	0	0	0	0	507	481
11	0	0	0	0	507	484
12	0	0	0	0	506	492
13	0	0	0	0	509	502
14	0	0	0	0	507	506
15	0	0	0	0	505	516
0	0	0	0	0	504	520
1	0	0	0	0	506	523
2	0	0	0	0	509	521
3	0	0	0	0	506	527
4	0	0	0	0	507	534
5	0	0	0	0	506	524
6	0	0	0	0	509	513
7	0	0	0	0	508	506
8	0	0	0	0	505	499
9	0	0	0	0	508	491
10	0	0	0	0	507	483
11	0	0	0	0	505	479
12	0	0	0	0	508	487
13	0	0	0	0	508	498
14	0	0	0	0	505	501
15	0	0	0	0	507	504
0	0	0	0	0	506	508
1	0	0	0	0	507	507
2	0	0	0	0	505	510
3	0	0	0	0	505	512
4	0	0	0	0	505	511
5	0	0	0	0	508	509
6	0	0	0	0	507	513
7	0	0	0	0	509	519
8	0	0	0	0	507	525
9	0	0	0	0	507	527
10	0	0	0	0	508	523
11	0	0	0	0	505	521
12	0	0	0	0	507	524
13	0	0	0	0	506	515
14	0	0	0	0	505	501
15	0	0	0	0	505	484
0	0	0	0	0	508	472
1	0	0	0	0	507	469
2	0	0	0	0	506	473
3	0	0	0	0	509	483
4	0	0	0	0	507	488
5	0	0	0	0	506	502
6	0	0	0	0	506	512
7	0	0	0	0	509	516
8	0	0	0	0	508	516
9	0	0	0	0	506	515
10	0	0	0	0	505	517
11	0	0	0	0	509	516
12	0	0	0	0	508	515
13	0	0	0	0	507	516
14	0	0	0	0	507	512
15	0	0	0	0	508	512
0	0	0	0	0	507	510
1	0	0	0	0	508	508
2	0	0	0	0	509	508
3	0	0	0	0	508	510
4	0	0	0	0	510	512
5	0	0	0	0	507	516
6	0	0	0	0	504	520
7	0	0	0	0	504	519
8	0	0	0	0	506	512
9	0	0	0	0	507	509
10	0	0	0	0	505	504
11	0	0	0	0	505	497
12	0	0	0	0	507	497
13	0	0	0	0	505	493
14	0	0	0	0	507	493
15	0	0	0	0	503	499
0	0	0	0	0	506	501
1	0	0	0	0	506	503
2	0	0	0	0	510	508
3	0	0	0	0	507	512
4	0	0	0	0	508	510
5	0	0	0	0	506	504
6	0	0	0	0	505	502
7	0	0	0	0	504	501
8	0	0	0	0	507	502
9	0	0	0	0	505	502
10	0	0	0	0	505	504
11	0	0	0	0	505	509
12	0	0	0	0	505	511
13	0	0	0	0	507	514
14	0	0	0	0	507	516
15	0	0	0	0	509	514
0	0	0	0	0	508	513
1	0	0	0	0	509	515
2	0	0	0	0	508	524
3	0	0	0	0	509	542
4	0	0	0	0	508	543
5	0	0	0	0	509	532
6	0	0	0	0	508	515
7	0	0	0	0	509	497
8	0	0	0	0	506	475
9	0	0	0	0	508	467
10	0	0	0	0	506	465
11	0	0	0	0	507	472
12	0	0	0	0	506	487
13	0	0	0	0	507	504
14	0	0	0	0	508	513
15	0	0	0	0	507	513
0	0	0	0	0	506	516
1	0	0	0	0	508	521
2	0	0	0	0	506	513
3	0	0	0	0	510	504
4	0	0	0	0	508	497
5	0	0	0	0	505	490
6	0	0	0	0	506	492
7	0	0	0	0	502	497
8	0	0	0	0	507	500
9	0	0	0	0	508	513
10	0	0	0	0	506	527
11	0	0	0	0	507	533
12	0	0	0	0	507	525
13	0	0	0	0	507	520
14	0	0	0	0	507	519
15	0	0	0	0	505	515
0	0	0	0	0	507	503
1	0	0	0	0	506	503
2	0	0	0	0	508	498
3	0	0	0	0	506	495
4	0	0	0	0	508	499
5	0	0	0	0	504	508
6	0	0	0	0	503	509
7	0	0	0	0	507	514
8	0	0	0	0	508	514
9	0	0	0	0	507	512
10	0	0	0	0	507	508
11	0	0	0	0	507	502
12	0	0	0	0	507	497
13	0	0	0	0	507	494
14	0	0	0	0	507	487
15	0	0	0	0	509	491
0	0	0	0	0	507	498
1	0	0	0	0	508	505
2	0	0	0	0	508	510
3	0	0	0	0	508	512
4	0	0	0	0	507	514
5	0	0	0	0	505	516
6	0	0	0	0	507	513
7	0	0	0	0	506	513
8	0	0	0	0	506	511
9	0	0	0	0	508	514
10	0	0	0	0	506	516
11	0	0	0	0	508	513
12	0	0	0	0	508	508
13	0	0	0	0	509	508
14	0	0	0	0	507	508
15	0	0	0	0	507	506
0	0	0	0	0	505	506
1	0	0	0	0	507	505
2	0	0	0	0	505	505
3	0	0	0	0	508	509
4	0	0	0	0	508	508
5	0	0	0	0	509	505
6	0	0	0	0	509	508
7	0	0	0	0	508	510
8	0	0	0	0	505	512
9	0	0	0	0	506	515
10	0	0	0	0	505	511
11	0	0	0	0	504	508
12	0	0	0	0	508	503
13	0	0	0	0	507	498
14	0	0	0	0	506	495
15	0	0	0	0	508	496
0	0	0	0	0	507	500
1	0	0	0	0	507	504
2	0	0	0	0	507	504
3	0	0	0	0	510	508
4	0	0	0	0	508	506
5	0	0	0	0	506	508
6	0	0	0	0	505	511
7	0	0	0	0	508	509
8	0	0	0	0	507	514
9	0	0	0	0	510	517
10	0	0	0	0	508	519
11	0	0	0	0	507	512
12	0	0	0	0	506	505
13	0	0	0	0	504	499
14	0	0	0	0	508	496
15	0	0	0	0	508	494
0	0	0	0	0	507	494
1	0	0	0	0	507	496
2	0	0	0	0	506	500
3	0	0	0	0	506	505
4	0	0	0	0	506	516
5	0	0	0	0	505	516
6	0	0	0	0	505	515
7	0	0	0	0	506	513
8	0	0	0	0	508	515
9	0	0	0	0	507	519
10	0	0	0	0	508	518
11	0	0	0	0	510	523
12	0	0	0	0	508	524
13	0	0	0	0	507	534
14	0	0	0	0	505	527
15	0	0	0	0	505	507
0	0	0	0	0	505	486
1	0	0	0	0	506	471
2	0	0	0	0	507	468
3	0	0	0	0	507	469
4	0	0	0	0	506	474
5	0	0	0	0	505	481
6	0	0	0	0	507	492
7	0	0	0	0	506	499
8	0	0	0	0	508	504
9	0	0	0	0	508	508
10	0	0	0	0	508	508
11	0	0	0	0	506	512
12	0	0	0	0	508	511
13	0	0	0	0	505	516
14	0	0	0	0	507	518
15	0	0	0	0	510	520
0	0	0	0	0	507	520
1	0	0	0	0	507	517
2	0	0	0	0	505	517
3	0	0	0	0	506	514
4	0	0	0	0	506	514
5	0	0	0	0	507	513
6	0	0	0	0	507	509
7	0	0	0	0	506	508
8	0	0	0	0	506	511
9	0	0	0	0	510	512
10	0	0	0	0	509	511
11	0	0	0	0	508	510
12	0	0	0	0	507	508
13	0	0	0	0	504	509
14	0	0	0	0	506	508
15	0	0	0	0	507	508
0	0	0	0	0	506	509
1	0	0	0	0	508	511
2	0	0	0	0	504	513
3	0	0	0	0	505	507
4	0	0	0	0	506	510
5	0	0	0	0	507	508
6	0	0	0	0	505	504
7	0	0	0	0	507	501
8	0	0	0	0	508	503
9	0	0	0	0	508	502
10	0	0	0	0	509	500
11	0	0	0	0	508	500
12	0	0	0	0	508	501
13	0	0	0	0	508	498
14	0	0	0	0	507	503
15	0	0	0	0	505	504
0	0	0	0	0	507	507
1	0	0	0	0	507	515
2	0	0	0	0	507	519
3	0	0	0	0	507	516
4	0	0	0	0	508	514
5	0	0	0	0	507	512
6	0	0	0	0	506	505
7	0	0	0	0	508	505
8	0	0	0	0	507	515
9	0	0	0	0	506	531
10	0	0	0	0	507	527
11	0	0	0	0	507	509
12	0	0	0	0	506	494
13	0	0	0	0	507	475
14	0	0	0	0	508	467
15	0	0	0	0	508	467
0	0	0	0	0	508	482
1	0	0	0	0	510	501
2	0	0	0	0	508	521
3	0	0	0	0	508	525
4	0	0	0	0	507	519
5	0	0	0	0	506	512
6	0	0	0	0	507	505
7	0	0	0	0	506	499
8	0	0	0	0	506	499
9	0	0	0	0	505	501
10	0	0	0	0	506	514
11	0	0	0	0	505	526
12	0	0	0	0	508	524
13	0	0	0	0	505	521
14	0	0	0	0	506	513
15	0	0	0	0	508	504
0	0	0	0	0	508	501
1	0	0	0	0	507	499
2	0	0	0	0	508	497
3	0	0	0	0	508	500
4	0	0	0	0	504	510
5	0	0	0	0	507	512
6	0	0	0	0	506	511
7	0	0	0	0	508	509
8	0	0	0	0	507	509
9	0	0	0	0	505	507
10	0	0	0	0	507	505
11	0	0	0	0	507	504
12	0	0	0	0	507	505
13	0	0	0	0	507	503
14	0	0	0	0	508	504
15	0	0	0	0	508	506
0	0	0	0	0	508	508
1	0	0	0	0	508	508
2	0	0	0	0	507	506
3	0	0	0	0	508	504
4	0	0	0	0	506	505
5	0	0	0	0	506	505
6	0	0	0	0	507	505
7	0	0	0	0	507	507
8	0	0	0	0	505	506
9	0	0	0	0	504	510
10	0	0	0	0	506	511
11	0	0	0	0	506	510
12	0	0	0	0	507	512
13	0	0	0	0	509	514
14	0	0	0	0	507	516
15	0	0	0	0	508	516
0	0	0	0	0	507	516
1	0	0	0	0	507	513
2	0	0	0	0	507	508
3	0	0	0	0	508	504
4	0	0	0	0	506	497
5	0	0	0	0	507	494
6	0	0	0	0	506	497
7	0	0	0	0	507	499
8	0	0	0	0	505	503
9	0	0	0	0	508	507
10	0	0	0	0	508	511
11	0	0	0	0	508	511
12	0	0	0	0	508	518
13	0	0	0	0	508	526
14	0	0	0	0	505	525
15	0	0	0	0	508	517
0	0	0	0	0	506	504
1	0	0	0	0	507	495
2	0	0	0	0	508	496
3	0	0	0	0	505	497
4	0	0	0	0	507	500
5	0	0	0	0	504	507
6	0	0	0	0	507	507
7	0	0	0	0	506	504
8	0	0	0	0	507	497
9	0	0	0	0	508	492
10	0	0	0	0	505	485
11	0	0	0	0	507	483
12	0	0	0	0	508	494
13	0	0	0	0	506	501
14	0	0	0	0	506	507
15	0	0	0	0	508	517
0	0	0	0	0	507	527
1	0	0	0	0	509	520
2	0	0	0	0	509	516
3	0	0	0	0	507	512
4	0	0	0	0	509	512
5	0	0	0	0	508	510
6	0	0	0	0	508	510
7	0	0	0	0	508	509
8	0	0	0	0	508	504
9	0	0	0	0	506	500
10	0	0	0	0	507	500
11	0	0	0	0	505	502
12	0	0	0	0	505	502
13	0	0	0	0	509	506
14	0	0	0	0	504	518
15	0	0	0	0	507	526
0	0	0	0	0	507	528
1	0	0	0	0	505	522
2	0	0	0	0	508	510
3	0	0	0	0	507	503
4	0	0	0	0	507	498
5	0	0	0	0	507	492
6	0	0	0	0	504	487
7	0	0	0	0	505	490
8	0	0	0	0	505	491
9	0	0	0	0	508	498
10	0	0	0	0	506	511
11	0	0	0	0	506	515
12	0	0	0	0	509	519
13	0	0	0	0	507	519
14	0	0	0	0	508	512
15	0	0	0	0	509	509
0	0	0	0	0	506	502
1	0	0	0	0	506	498
2	0	0	0	0	505	499
3	0	0	0	0	507	499
4	0	0	0	0	508	503
5	0	0	0	0	510	508
6	0	0	0	0	505	508
7	0	0	0	0	507	512
8	0	0	0	0	506	515
9	0	0	0	0	508	521
10	0	0	0	0	505	518
11	0	0	0	0	508	512
12	0	0	0	0	508	508
13	0	0	0	0	505	506
14	0	0	0	0	507	505
15	0	0	0	0	506	501
0	0	0	0	0	508	507
1	0	0	0	0	507	511
2	0	0	0	0	505	510
3	0	0	0	0	505	510
4	0	0	0	0	506	504
5	0	0	0	0	508	499
6	0	0	0	0	506	496
7	0	0	0	0	508	495
8	0	0	0	0	510	503
9	0	0	0	0	506	508
10	0	0	0	0	510	511
11	0	0	0	0	507	511
12	0	0	0	0	506	510
13	0	0	0	0	507	510
14	0	0	0	0	505	504
15	0	0	0	0	505	504
0	0	0	0	0	504	508
1	0	0	0	0	505	515
2	0	0	0	0	506	518
3	0	0	0	0	505	516
4	0	0	0	0	508	515
5	0	0	0	0	508	518
6	0	0	0	0	505	510
7	0	0	0	0	507	500
8	0	0	0	0	507	492
9	0	0	0	0	508	487
10	0	0	0	0	505	489
11	0	0	0	0	508	494
12	0	0	0	0	507	499
13	0	0	0	0	508	513
14	0	0	0	0	508	524
15	0	0	0	0	506	519
0	0	0	0	0	508	511
1	0	0	0	0	508	500
2	0	0	0	0	508	490
3	0	0	0	0	509	494
4	0	0	0	0	507	499
5	0	0	0	0	508	499
6	0	0	0	0	508	502
7	0	0	0	0	506	507
8	0	0	0	0	504	508
9	0	0	0	0	506	507
10	0	0	0	0	506	508
11	0	0	0	0	504	508
12	0	0	0	0	506	508
13	0	0	0	0	509	512
14	0	0	0	0	505	512
15	0	0	0	0	507	515
0	0	0	0	0	508	513
1	0	0	0	0	508	511
2	0	0	0	0	507	512
3	0	0	0	0	507	510
4	0	0	0	0	507	511
5	0	0	0	0	508	509
6	0	0	0	0	508	509
7	0	0	0	0	507	511
8	0	0	0	0	509	510
9	0	0	0	0	506	510
10	0	0	0	0	505	508
11	0	0	0	0	505	511
12	0	0	0	0	504	514
13	0	0	0	0	508	515
14	0	0	0	0	507	510
15	0	0	0	0	506	505
0	0	0	0	0	505	499
1	0	0	0	0	511	496
2	0	0	0	0	507	493
3	0	0	0	0	507	502
4	0	0	0	0	508	519
5	0	0	0	0	508	527
6	0	0	0	0	504	523
7	0	0	0	0	508	516
8	0	0	0	0	505	511
9	0	0	0	0	505	507
10	0	0	0	0	508	496
11	0	0	0	0	507	487
12	0	0	0	0	507	482
13	0	0	0	0	507	482
14	0	0	0	0	507	486
15	0	0	0	0	504	491
0	0	0	0	0	505	499
1	0	0	0	0	508	516
2	0	0	0	0	506	524
3	0	0	0	0	507	531
4	0	0	0	0	507	536
5	0	0	0	0	507	530
6	0	0	0	0	508	519
7	0	0	0	0	507	508
8	0	0	0	0	507	494
9	0	0	0	0	506	484
10	0	0	0	0	506	483
11	0	0	0	0	508	483
12	0	0	0	0	507	480
13	0	0	0	0	511	487
14	0	0	0	0	508	494
15	0	0	0	0	508	505
0	0	0	0	0	508	516
1	0	0	0	0	506	520
2	0	0	0	0	507	521
3	0	0	0	0	505	519
4	0	0	0	0	503	513
5	0	0	0	0	508	513
6	0	0	0	0	508	508
7	0	0	0	0	507	509
8	0	0	0	0	507	510
9	0	0	0	0	507	511
10	0	0	0	0	508	509
11	0	0	0	0	507	511
12	0	0	0	0	508	512
13	0	0	0	0	509	514
14	0	0	0	0	506	516
15	0	0	0	0	507	508
0	0	0	0	0	506	506
1	0	0	0	0	506	500
2	0	0	0	0	507	497
3	0	0	0	0	505	496
4	0	0	0	0	502	496
5	0	0	0	0	505	501
6	0	0	0	0	506	507
7	0	0	0	0	505	510
8	0	0	0	0	508	508
9	0	0	0	0	508	508
10	0	0	0	0	507	512
11	0	0	0	0	507	516
12	0	0	0	0	506	515
13	0	0	0	0	508	515
14	0	0	0	0	506	513
15	0	0	0	0	507	512
0	0	0	0	0	506	507
1	0	0	0	0	510	505
2	0	0	0	0	511	507
3	0	0	0	0	510	505
4	0	0	0	0	507	503
5	0	0	0	0	507	501
6	0	0	0	0	507	500
7	0	0	0	0	508	502
8	0	0	0	0	505	497
9	0	0	0	0	506	501
10	0	0	0	0	506	506
11	0	0	0	0	506	510
12	0	0	0	0	507	515
13	0	0	0	0	507	516
14	0	0	0	0	510	523
15	0	0	0	0	505	527
0	0	0	0	0	505	523
1	0	0	0	0	510	528
2	0	0	0	0	505	520
3	0	0	0	0	507	503
4	0	0	0	0	505	483
5	0	0	0	0	506	465
6	0	0	0	0	508	458
7	0	0	0	0	505	458
8	0	0	0	0	506	475
9	0	0	0	0	506	491
10	0	0	0	0	507	508
11	0	0	0	0	504	517
12	0	0	0	0	507	519
13	0	0	0	0	508	520
14	0	0	0	0	507	518
15	0	0	0	0	505	511
0	0	0	0	0	508	510
1	0	0	0	0	507	512
2	0	0	0	0	509	513
3	0	0	0	0	509	515
4	0	0	0	0	506	519
5	0	0	0	0	509	517
6	0	0	0	0	508	514
7	0	0	0	0	507	511
8	0	0	0	0	508	507
9	0	0	0	0	508	504
10	0	0	0	0	508	507
11	0	0	0	0	508	507
12	0	0	0	0	506	506
13	0	0	0	0	506	513
14	0	0	0	0	507	522
15	0	0	0	0	506	553
0	0	0	0	0	507	564
1	0	0	0	0	505	540
2	0	0	0	0	508	508
3	0	0	0	0	505	479
4	0	0	0	0	506	452
5	0	0	0	0	505	435
6	0	0	0	0	506	433
7	0	0	0	0	508	454
8	0	0	0	0	507	481
9	0	0	0	0	505	506
10	0	0	0	0	506	521
11	0	0	0	0	508	527
12	0	0	0	0	506	525
13	0	0	0	0	509	527
14	0	0	0	0	507	524
15	0	0	0	0	509	522
0	0	0	0	0	507	524
1	0	0	0	0	507	529
2	0	0	0	0	507	526
3	0	0	0	0	508	518
4	0	0	0	0	507	508
5	0	0	0	0	504	507
6	0	0	0	0	507	508
7	0	0	0	0	507	513
8	0	0	0	0	509	512
9	0	0	0	0	506	511
10	0	0	0	0	507	511
11	0	0	0	0	505	508
12	0	0	0	0	506	504
13	0	0	0	0	508	502
14	0	0	0	0	508	503
15	0	0	0	0	506	501
0	0	0	0	0	508	502
1	0	0	0	0	507	501
2	0	0	0	0	506	503
3	0	0	0	0	505	502
4	0	0	0	0	505	505
5	0	0	0	0	507	503
6	0	0	0	0	505	503
7	0	0	0	0	507	506
8	0	0	0	0	509	509
9	0	0	0	0	508	508
10	0	0	0	0	507	511
11	0	0	0	0	506	511
12	0	0	0	0	505	514
13	0	0	0	0	509	512
14	0	0	0	0	507	514
15	0	0	0	0	507	510
0	0	0	0	0	504	508
1	0	0	0	0	507	505
2	0	0	0	0	507	499
3	0	0	0	0	509	502
4	0	0	0	0	510	504
5	0	0	0	0	507	504
6	0	0	0	0	508	502
7	0	0	0	0	507	500
8	0	0	0	0	504	496
9	0	0	0	0	506	497
10	0	0	0	0	504	507
11	0	0	0	0	508	513
12	0	0	0	0	507	515
13	0	0	0	0	507	511
14	0	0	0	0	506	508
15	0	0	0	0	507	502
0	0	0	0	0	506	494
1	0	0	0	0	505	492
2	0	0	0	0	507	495
3	0	0	0	0	508	499
4	0	0	0	0	508	512
5	0	0	0	0	507	524
6	0	0	0	0	507	535
7	0	0	0	0	506	531
8	0	0	0	0	509	519
9	0	0	0	0	506	504
10	0	0	0	0	505	493
11	0	0	0	0	505	486
12	0	0	0	0	506	480
13	0	0	0	0	507	485
14	0	0	0	0	508	493
15	0	0	0	0	507	502
0	0	0	0	0	508	510
1	0	0	0	0	506	512
2	0	0	0	0	508	510
3	0	0	0	0	506	506
4	0	0	0	0	510	512
5	0	0	0	0	507	514
6	0	0	0	0	508	515
7	0	0	0	0	507	516
8	0	0	0	0	504	517
9	0	0	0	0	506	516
10	0	0	0	0	508	512
11	0	0	0	0	509	511
12	0	0	0	0	506	512
13	0	0	0	0	505	506
14	0	0	0	0	505	504
15	0	0	0	0	506	502
0	0	0	0	0	507	500
1	0	0	0	0	507	501
2	0	0	0	0	506	508
3	0	0	0	0	509	511
4	0	0	0	0	508	516
5	0	0	0	0	507	515
6	0	0	0	0	510	512
7	0	0	0	0	508	507
8	0	0	0	0	506	501
9	0	0	0	0	505	499
10	0	0	0	0	505	503
11	0	0	0	0	505	503
12	0	0	0	0	506	501
13	0	0	0	0	506	500
14	0	0	0	0	505	500
15	0	0	0	0	505	503
0	0	0	0	0	506	505
1	0	0	0	0	506	511
2	0	0	0	0	506	512
3	0	0	0	0	508	512
4	0	0	0	0	506	507
5	0	0	0	0	507	506
6	0	0	0	0	506	505
7	0	0	0	0	508	506
8	0	0	0	0	506	508
9	0	0	0	0	510	510
10	0	0	0	0	509	510
11	0	0	0	0	508	509
12	0	0	0	0	508	508
13	0	0	0	0	507	510
14	0	0	0	0	510	512
15	0	0	0	0	508	509
0	0	0	0	0	508	507
1	0	0	0	0	509	505
2	0	0	0	0	509	505
3	0	0	0	0	506	504
4	0	0	0	0	506	504
5	0	0	0	0	505	505
6	0	0	0	0	507	506
7	0	0	0	0	505	507
8	0	0	0	0	505	506
9	0	0	0	0	504	508
10	0	0	0	0	504	508
11	0	0	0	0	505	509
12	0	0	0	0	506	511
13	0	0	0	0	506	508
14	0	0	0	0	507	506
15	0	0	0	0	508	507
0	0	0	0	0	506	508
1	0	0	0	0	507	506
2	0	0	0	0	508	507
3	0	0	0	0	508	509
4	0	0	0	0	506	512
5	0	0	0	0	507	515
6	0	0	0	0	505	511
7	0	0	0	0	507	519
8	0	0	0	0	507	523
9	0	0	0	0	506	527
10	0	0	0	0	505	517
11	0	0	0	0	506	511
12	0	0	0	0	506	503
13	0	0	0	0	507	493
14	0	0	0	0	508	480
15	0	0	0	0	506	473
0	0	0	0	0	508	478
1	0	0	0	0	509	488
2	0	0	0	0	509	498
3	0	0	0	0	506	504
4	0	0	0	0	505	511
5	0	0	0	0	506	511
6	0	0	0	0	508	512
7	0	0	0	0	506	511
8	0	0	0	0	506	510
9	0	0	0	0	507	510
10	0	0	0	0	507	508
11	0	0	0	0	506	505
12	0	0	0	0	508	504
13	0	0	0	0	506	504
14	0	0	0	0	508	510
15	0	0	0	0	507	513
0	0	0	0	0	508	515
1	0	0	0	0	507	519
2	0	0	0	0	505	515
3	0	0	0	0	507	513
4	0	0	0	0	508	510
5	0	0	0	0	506	505
6	0	0	0	0	507	504
7	0	0	0	0	508	504
8	0	0	0	0	506	507
9	0	0	0	0	507	505
10	0	0	0	0	508	504
11	0	0	0	0	508	505
12	0	0	0	0	508	508
13	0	0	0	0	505	511
14	0	0	0	0	506	512
15	0	0	0	0	506	512
0	0	0	0	0	508	512
1	0	0	0	0	504	510
2	0	0	0	0	507	506
3	0	0	0	0	508	505
4	0	0	0	0	509	504
5	0	0	0	0	509	501
6	0	0	0	0	507	503
7	0	0	0	0	508	506
8	0	0	0	0	506	513
9	0	0	0	0	508	515
10	0	0	0	0	507	511
11	0	0	0	0	507	507
12	0	0	0	0	510	504
13	0	0	0	0	508	503
14	0	0	0	0	505	500
15	0	0	0	0	507	501
0	0	0	0	0	507	504
1	0	0	0	0	507	510
2	0	0	0	0	506	510
3	0	0	0	0	505	508
4	0	0	0	0	509	507
5	0	0	0	0	508	511
6	0	0	0	0	507	514
7	0	0	0	0	508	505
8	0	0	0	0	507	507
9	0	0	0	0	508	504
10	0	0	0	0	508	503
11	0	0	0	0	506	502
12	0	0	0	0	504	495
13	0	0	0	0	504	495
14	0	0	0	0	507	508
15	0	0	0	0	507	510
0	0	0	0	0	507	519
1	0	0	0	0	507	523
2	0	0	0	0	505	521
3	0	0	0	0	506	510
4	0	0	0	0	508	503
5	0	0	0	0	507	496
6	0	0	0	0	507	491
7	0	0	0	0	508	487
8	0	0	0	0	508	490
9	0	0	0	0	507	494
10	0	0	0	0	508	502
11	0	0	0	0	508	509
12	0	0	0	0	507	513
13	0	0	0	0	505	516
14	0	0	0	0	507	516
15	0	0	0	0	507	513
0	0	0	0	0	505	516
1	0	0	0	0	504	515
2	0	0	0	0	507	515
3	0	0	0	0	507	519
4	0	0	0	0	507	525
5	0	0	0	0	508	529
6	0	0	0	0	508	528
7	0	0	0	0	508	518
8	0	0	0	0	506	500
9	0	0	0	0	507	488
10	0	0	0	0	508	477
11	0	0	0	0	505	477
12	0	0	0	0	507	483
13	0	0	0	0	507	492
14	0	0	0	0	507	507
15	0	0	0	0	505	510
0	0	0	0	0	505	510
1	0	0	0	0	506	508
2	0	0	0	0	507	504
3	0	0	0	0	508	502
4	0	0	0	0	507	503
5	0	0	0	0	508	500
6	0	0	0	0	506	507
7	0	0	0	0	507	508
8	0	0	0	0	509	513
9	0	0	0	0	507	516
10	0	0	0	0	508	515
11	0	0	0	0	505	517
12	0	0	0	0	505	519
13	0	0	0	0	507	520
14	0	0	0	0	505	523
15	0	0	0	0	506	519
0	0	0	0	0	506	510
1	0	0	0	0	506	504
2	0	0	0	0	508	500
3	0	0	0	0	506	497
4	0	0	0	0	505	496
5	0	0	0	0	508	496
6	0	0	0	0	506	504
7	0	0	0	0	506	504
8	0	0	0	0	507	504
9	0	0	0	0	505	509
10	0	0	0	0	507	510
11	0	0	0	0	509	507
12	0	0	0	0	507	504
13	0	0	0	0	508	503
14	0	0	0	0	507	500
15	0	0	0	0	509	502
0	0	0	0	0	506	504
1	0	0	0	0	507	507
2	0	0	0	0	508	508
3	0	0	0	0	508	507
4	0	0	0	0	509	509
5	0	0	0	0	506	508
6	0	0	0	0	508	507
7	0	0	0	0	507	505
8	0	0	0	0	506	505
9	0	0	0	0	508	505
10	0	0	0	0	506	509
11	0	0	0	0	505	510
12	0	0	0	0	507	510
13	0	0	0	0	505	509
14	0	0	0	0	506	509
15	0	0	0	0	505	507
0	0	0	0	0	505	510
1	0	0	0	0	507	509
2	0	0	0	0	505	508
3	0	0	0	0	510	509
4	0	0	0	0	508	506
5	0	0	0	0	508	508
6	0	0	0	0	507	506
7	0	0	0	0	508	508
8	0	0	0	0	506	509
9	0	0	0	0	508	507
10	0	0	0	0	508	508
11	0	0	0	0	507	508
12	0	0	0	0	507	507
13	0	0	0	0	505	508
14	0	0	0	0	505	517
15	0	0	0	0	508	519
0	0	0	0	0	506	520
1	0	0	0	0	508	529
2	0	0	0	0	506	536
3	0	0	0	0	505	531
4	0	0	0	0	506	521
5	0	0	0	0	508	502
6	0	0	0	0	507	483
7	0	0	0	0	509	465
8	0	0	0	0	507	459
9	0	0	0	0	509	457
10	0	0	0	0	508	464
11	0	0	0	0	510	478
12	0	0	0	0	505	492
13	0	0	0	0	508	505
14	0	0	0	0	507	512
15	0	0	0	0	507	517
0	0	0	0	0	507	518
1	0	0	0	0	507	516
2	0	0	0	0	508	519
3	0	0	0	0	507	518
4	0	0	0	0	506	518
5	0	0	0	0	507	518
6	0	0	0	0	507	524
7	0	0	0	0	507	530
8	0	0	0	0	505	525
9	0	0	0	0	506	517
10	0	0	0	0	509	505
11	0	0	0	0	506	500
12	0	0	0	0	505	498
13	0	0	0	0	505	499
14	0	0	0	0	505	501
15	0	0	0	0	506	504
0	0	0	0	0	508	504
1	0	0	0	0	507	502
2	0	0	0	0	506	502
3	0	0	0	0	505	503
4	0	0	0	0	507	503
5	0	0	0	0	507	507
6	0	0	0	0	506	510
7	0	0	0	0	507	509
8	0	0	0	0	508	511
9	0	0	0	0	507	509
10	0	0	0	0	505	508
11	0	0	0	0	507	511
12	0	0	0	0	506	512
13	0	0	0	0	508	516
14	0	0	0	0	506	511
15	0	0	0	0	508	511
0	0	0	0	0	506	512
1	0	0	0	0	507	510
2	0	0	0	0	508	507
3	0	0	0	0	509	508
4	0	0	0	0	509	506
5	0	0	0	0	506	504
6	0	0	0	0	505	499
7	0	0	0	0	506	497
8	0	0	0	0	508	500
9	0	0	0	0	507	503
10	0	0	0	0	505	507
11	0	0	0	0	508	510
12	0	0	0	0	508	513
13	0	0	0	0	506	516
14	0	0	0	0	505	516
15	0	0	0	0	505	515
0	0	0	0	0	507	504
1	0	0	0	0	506	497
2	0	0	0	0	508	498
3	0	0	0	0	507	504
4	0	0	0	0	506	505
5	0	0	0	0	508	504
6	0	0	0	0	506	504
7	0	0	0	0	507	505
8	0	0	0	0	508	503
9	0	0	0	0	507	499
10	0	0	0	0	505	499
11	0	0	0	0	507	499
12	0	0	0	0	508	502
13	0	0	0	0	507	502
14	0	0	0	0	506	507
15	0	0	0	0	505	512
0	0	0	0	0	507	512
1	0	0	0	0	507	509
2	0	0	0	0	507	509
3	0	0	0	0	506	510
4	0	0	0	0	506	510
5	0	0	0	0	506	514
6	0	0	0	0	507	521
7	0	0	0	0	507	519
8	0	0	0	0	508	515
9	0	0	0	0	507	510
10	0	0	0	0	507	503
11	0	0	0	0	508	499
12	0	0	0	0	507	503
13	0	0	0	0	510	508
14	0	0	0	0	508	515
15	0	0	0	0	505	513
0	0	0	0	0	507	508
1	0	0	0	0	504	500
2	0	0	0	0	507	489
3	0	0	0	0	508	490
4	0	0	0	0	506	491
5	0	0	0	0	506	496
6	0	0	0	0	507	499
7	0	0	0	0	505	502
8	0	0	0	0	505	508
9	0	0	0	0	506	508
10	0	0	0	0	508	512
11	0	0	0	0	506	513
12	0	0	0	0	507	512
13	0	0	0	0	505	511
14	0	0	0	0	506	510
15	0	0	0	0	508	509
0	0	0	0	0	508	511
1	0	0	0	0	506	514
2	0	0	0	0	507	513
3	0	0	0	0	508	511
4	0	0	0	0	504	510
5	0	0	0	0	506	509
6	0	0	0	0	504	507
7	0	0	0	0	507	508
8	0	0	0	0	507	510
9	0	0	0	0	508	511
10	0	0	0	0	508	508
11	0	0	0	0	508	506
12	0	0	0	0	507	504
13	0	0	0	0	509	504
14	0	0	0	0	505	505
15	0	0	0	0	508	505
0	0	0	0	0	507	507
1	0	0	0	0	506	506
2	0	0	0	0	505	509
3	0	0	0	0	508	514
4	0	0	0	0	507	516
5	0	0	0	0	508	513
6	0	0	0	0	504	509
7	0	0	0	0	506	505
8	0	0	0	0	506	501
9	0	0	0	0	508	503
10	0	0	0	0	505	503
11	0	0	0	0	507	499
12	0	0	0	0	507	492
13	0	0	0	0	505	491
14	0	0	0	0	507	495
15	0	0	0	0	506	504
0	0	0	0	0	506	508
1	0	0	0	0	508	509
2	0	0	0	0	507	509
3	0	0	0	0	508	513
4	0	0	0	0	505	511
5	0	0	0	0	507	515
6	0	0	0	0	508	517
7	0	0	0	0	506	524
8	0	0	0	0	508	536
9	0	0	0	0	507	531
10	0	0	0	0	508	514
11	0	0	0	0	510	496
12	0	0	0	0	508	479
13	0	0	0	0	507	462
14	0	0	0	0	507	461
15	0	0	0	0	507	474
0	0	0	0	0	506	489
1	0	0	0	0	506	502
2	0	0	0	0	505	512
3	0	0	0	0	506	519
4	0	0	0	0	507	519
5	0	0	0	0	506	519
6	0	0	0	0	507	519
7	0	0	0	0	508	522
8	0	0	0	0	507	519
9	0	0	0	0	508	515
10	0	0	0	0	508	512
11	0	0	0	0	506	511
12	0	0	0	0	507	510
13	0	0	0	0	508	507
14	0	0	0	0	509	504
15	0	0	0	0	505	507
0	0	0	0	0	506	508
1	0	0	0	0	507	509
2	0	0	0	0	504	507
3	0	0	0	0	507	508
4	0	0	0	0	507	509
5	0	0	0	0	505	509
6	0	0	0	0	508	508
7	0	0	0	0	507	508
8	0	0	0	0	506	507
9	0	0	0	0	505	506
10	0	0	0	0	507	504
11	0	0	0	0	507	504
12	0	0	0	0	508	502
13	0	0	0	0	508	508
14	0	0	0	0	507	516
15	0	0	0	0	507	522
0	0	0	0	0	509	516
1	0	0	0	0	506	506
2	0	0	0	0	508	498
3	0	0	0	0	508	496
4	0	0	0	0	508	495
5	0	0	0	0	508	495
6	0	0	0	0	507	502
7	0	0	0	0	508	513
8	0	0	0	0	508	520
9	0	0	0	0	507	521
10	0	0	0	0	505	515
11	0	0	0	0	507	505
12	0	0	0	0	505	498
13	0	0	0	0	505	494
14	0	0	0	0	505	487
15	0	0	0	0	510	493
0	0	0	0	0	508	501
1	0	0	0	0	507	511
2	0	0	0	0	506	519
3	0	0	0	0	505	514
4	0	0	0	0	506	513
5	0	0	0	0	507	512
6	0	0	0	0	506	519
7	0	0	0	0	506	520
8	0	0	0	0	507	514
9	0	0	0	0	507	512
10	0	0	0	0	507	508
11	0	0	0	0	507	503
12	0	0	0	0	507	489
13	0	0	0	0	504	482
14	0	0	0	0	505	484
15	0	0	0	0	505	488
0	0	0	0	0	507	494
1	0	0	0	0	507	500
2	0	0	0	0	508	510
3	0	0	0	0	507	513
4	0	0	0	0	507	516
5	0	0	0	0	507	515
6	0	0	0	0	507	513
7	0	0	0	0	508	514
8	0	0	0	0	506	510
9	0	0	0	0	506	511
10	0	0	0	0	506	520
11	0	0	0	0	509	534
12	0	0	0	0	507	541
13	0	0	0	0	509	540
14	0	0	0	0	508	525
15	0	0	0	0	508	499
0	0	0	0	0	508	479
1	0	0	0	0	508	468
2	0	0	0	0	505	466
3	0	0	0	0	504	466
4	0	0	0	0	505	480
5	0	0	0	0	507	490
6	0	0	0	0	505	502
7	0	0	0	0	508	512
8	0	0	0	0	507	517
9	0	0	0	0	507	517
10	0	0	0	0	508	517
11	0	0	0	0	508	516
12	0	0	0	0	509	515
13	0	0	0	0	507	514
14	0	0	0	0	508	511
15	0	0	0	0	504	511
0	0	0	0	0	508	515
1	0	0	0	0	506	517
2	0	0	0	0	505	515
3	0	0	0	0	505	516
4	0	0	0	0	507	523
5	0	0	0	0	507	526
6	0	0	0	0	507	518
7	0	0	0	0	509	508
8	0	0	0	0	508	496
9	0	0	0	0	508	491
10	0	0	0	0	507	482
11	0	0	0	0	506	481
12	0	0	0	0	507	485
13	0	0	0	0	508	487
14	0	0	0	0	506	497
15	0	0	0	0	508	504
0	0	0	0	0	508	511
1	0	0	0	0	507	511
2	0	0	0	0	507	515
3	0	0	0	0	508	518
4	0	0	0	0	509	514
5	0	0	0	0	507	516
6	0	0	0	0	506	513
7	0	0	0	0	507	515
8	0	0	0	0	506	518
9	0	0	0	0	506	524
10	0	0	0	0	506	523
11	0	0	0	0	508	519
12	0	0	0	0	507	515
13	0	0	0	0	507	513
14	0	0	0	0	507	511
15	0	0	0	0	508	505
0	0	0	0	0	508	502
1	0	0	0	0	507	499
2	0	0	0	0	506	500
3	0	0	0	0	508	501
4	0	0	0	0	507	496
5	0	0	0	0	508	492
6	0	0	0	0	508	490
7	0	0	0	0	505	487
8	0	0	0	0	506	492
9	0	0	0	0	506	499
10	0	0	0	0	506	508
11	0	0	0	0	507	512
12	0	0	0	0	506	514
13	0	0	0	0	507	512
14	0	0	0	0	507	511
15	0	0	0	0	504	509
0	0	0	0	0	505	508
1	0	0	0	0	506	509
2	0	0	0	0	509	510
3	0	0	0	0	508	514
4	0	0	0	0	508	514
5	0	0	0	0	506	510
6	0	0	0	0	506	508
7	0	0	0	0	505	505
8	0	0	0	0	507	507
9	0	0	0	0	507	506
10	0	0	0	0	508	509
11	0	0	0	0	507	512
12	0	0	0	0	508	519
13	0	0	0	0	505	516
14	0	0	0	0	506	511
15	0	0	0	0	507	506
0	0	0	0	0	507	505
1	0	0	0	0	508	500
2	0	0	0	0	508	496
3	0	0	0	0	509	496
4	0	0	0	0	507	493
5	0	0	0	0	507	493
6	0	0	0	0	507	497
7	0	0	0	0	505	500
8	0	0	0	0	507	504
9	0	0	0	0	508	502
10	0	0	0	0	506	501
11	0	0	0	0	505	504
12	0	0	0	0	507	515
13	0	0	0	0	508	520
14	0	0	0	0	505	519
15	0	0	0	0	507	519
0	0	0	0	0	508	516
1	0	0	0	0	508	518
2	0	0	0	0	508	517
3	0	0	0	0	507	515
4	0	0	0	0	507	506
5	0	0	0	0	508	496
6	0	0	0	0	506	494
7	0	0	0	0	505	496
8	0	0	0	0	507	503
9	0	0	0	0	508	499
10	0	0	0	0	504	495
11	0	0	0	0	505	495
12	0	0	0	0	505	505
13	0	0	0	0	508	507
14	0	0	0	0	507	498
15	0	0	0	0	504	497
0	0	0	0	0	508	499
1	0	0	0	0	506	507
2	0	0	0	0	507	509
3	0	0	0	0	509	512
4	0	0	0	0	506	515
5	0	0	0	0	507	518
6	0	0	0	0	507	519
7	0	0	0	0	507	515
8	0	0	0	0	507	513
9	0	0	0	0	507	513
10	0	0	0	0	509	510
11	0	0	0	0	505	507
12	0	0	0	0	504	504
13	0	0	0	0	506	504
14	0	0	0	0	506	505
15	0	0	0	0	508	508
0	0	0	0	0	507	508
1	0	0	0	0	508	516
2	0	0	0	0	508	515
3	0	0	0	0	507	514
4	0	0	0	0	507	511
5	0	0	0	0	507	504
6	0	0	0	0	508	501
7	0	0	0	0	507	497
8	0	0	0	0	507	502
9	0	0	0	0	507	507
10	0	0	0	0	507	508
11	0	0	0	0	508	511
12	0	0	0	0	508	507
13	0	0	0	0	508	505
14	0	0	0	0	509	498
15	0	0	0	0	508	495
0	0	0	0	0	507	499
1	0	0	0	0	508	509
2	0	0	0	0	506	517
3	0	0	0	0	508	522
4	0	0	0	0	506	517
5	0	0	0	0	507	513
6	0	0	0	0	507	507
7	0	0	0	0	507	503
8	0	0	0	0	504	498
9	0	0	0	0	504	504
10	0	0	0	0	504	505
11	0	0	0	0	506	507
12	0	0	0	0	507	506
13	0	0	0	0	507	504
14	0	0	0	0	506	499
15	0	0	0	0	505	497
0	0	0	0	0	505	499
1	0	0	0	0	507	504
2	0	0	0	0	507	510
3	0	0	0	0	508	510
4	0	0	0	0	510	509
5	0	0	0	0	507	510
6	0	0	0	0	508	508
7	0	0	0	0	508	507
8	0	0	0	0	505	510
9	0	0	0	0	505	507
10	0	0	0	0	505	509
11	0	0	0	0	508	507
12	0	0	0	0	507	505
13	0	0	0	0	507	504
14	0	0	0	0	508	505
15	0	0	0	0	507	504
0	0	0	0	0	510	508
1	0	0	0	0	510	513
2	0	0	0	0	507	529
3	0	0	0	0	509	535
4	0	0	0	0	505	531
5	0	0	0	0	508	521
6	0	0	0	0	508	507
7	0	0	0	0	507	494
8	0	0	0	0	506	485
9	0	0	0	0	508	480
10	0	0	0	0	505	480
11	0	0	0	0	507	491
12	0	0	0	0	508	495
13	0	0	0	0	508	500
14	0	0	0	0	504	505
15	0	0	0	0	506	515
0	0	0	0	0	509	530
1	0	0	0	0	507	528
2	0	0	0	0	506	526
3	0	0	0	0	508	512
4	0	0	0	0	505	502
5	0	0	0	0	508	494
6	0	0	0	0	507	486
7	0	0	0	0	508	489
8	0	0	0	0	505	492
9	0	0	0	0	505	500
10	0	0	0	0	506	511
11	0	0	0	0	504	514
12	0	0	0	0	508	516
13	0	0	0	0	509	515
14	0	0	0	0	508	517
15	0	0	0	0	507	515
0	0	0	0	0	508	511
1	0	0	0	0	507	505
2	0	0	0	0	505	503
3	0	0	0	0	507	505
4	0	0	0	0	506	504
5	0	0	0	0	506	505
6	0	0	0	0	508	505
7	0	0	0	0	507	506
8	0	0	0	0	508	510
9	0	0	0	0	507	515
10	0	0	0	0	507	522
11	0	0	0	0	505	527
12	0	0	0	0	504	529
13	0	0	0	0	506	519
14	0	0	0	0	505	511
15	0	0	0	0	506	500
0	0	0	0	0	508	484
1	0	0	0	0	508	473
2	0	0	0	0	508	471
3	0	0	0	0	509	480
4	0	0	0	0	505	492
5	0	0	0	0	507	499
6	0	0	0	0	505	508
7	0	0	0	0	506	508
8	0	0	0	0	508	512
9	0	0	0	0	508	515
10	0	0	0	0	510	519
11	0	0	0	0	507	519
12	0	0	0	0	506	518
13	0	0	0	0	507	511
14	0	0	0	0	506	511
15	0	0	0	0	505	511
0	0	0	0	0	505	508
1	0	0	0	0	505	507
2	0	0	0	0	504	509
3	0	0	0	0	507	509
4	0	0	0	0	507	509
5	0	0	0	0	505	508
6	0	0	0	0	507	507
7	0	0	0	0	506	504
8	0	0	0	0	507	506
9	0	0	0	0	508	505
10	0	0	0	0	507	506
11	0	0	0	0	508	510
12	0	0	0	0	507	508
13	0	0	0	0	507	511
14	0	0	0	0	507	511
15	0	0	0	0	507	511
0	0	0	0	0	508	510
1	0	0	0	0	507	509
2	0	0	0	0	507	509
3	0	0	0	0	506	506
4	0	0	0	0	506	505
5	0	0	0	0	506	507
6	0	0	0	0	507	507
7	0	0	0	0	507	502
8	0	0	0	0	507	503
9	0	0	0	0	508	507
10	0	0	0	0	508	507
11	0	0	0	0	507	506
12	0	0	0	0	507	505
13	0	0	0	0	506	506
14	0	0	0	0	507	507
15	0	0	0	0	508	506
0	0	0	0	0	506	502
1	0	0	0	0	505	503
2	0	0	0	0	506	507
3	0	0	0	0	508	505
4	0	0	0	0	507	517
5	0	0	0	0	508	534
6	0	0	0	0	504	541
7	0	0	0	0	505	535
8	0	0	0	0	506	527
9	0	0	0	0	506	506
10	0	0	0	0	508	486
11	0	0	0	0	507	470
12	0	0	0	0	509	466
13	0	0	0	0	508	473
14	0	0	0	0	505	489
15	0	0	0	0	508	494
0	0	0	0	0	508	499
1	0	0	0	0	507	504
2	0	0	0	0	506	502
3	0	0	0	0	507	501
4	0	0	0	0	509	501
5	0	0	0	0	506	505
6	0	0	0	0	508	509
7	0	0	0	0	507	515
8	0	0	0	0	508	517
9	0	0	0	0	506	519
10	0	0	0	0	508	515
11	0	0	0	0	507	515
12	0	0	0	0	508	518
13	0	0	0	0	507	519
14	0	0	0	0	507	519
15	0	0	0	0	505	515
0	0	0	0	0	507	515
1	0	0	0	0	506	509
2	0	0	0	0	508	505
3	0	0	0	0	506	501
4	0	0	0	0	506	504
5	0	0	0	0	506	502
6	0	0	0	0	504	508
7	0	0	0	0	504	509
8	0	0	0	0	507	509
9	0	0	0	0	504	506
10	0	0	0	0	506	506
11	0	0	0	0	506	504
12	0	0	0	0	510	501
13	0	0	0	0	509	502
14	0	0	0	0	508	498
15	0	0	0	0	508	503
0	0	0	0	0	508	504
1	0	0	0	0	508	504
2	0	0	0	0	508	508
3	0	0	0	0	509	508
4	0	0	0	0	508	511
5	0	0	0	0	508	510
6	0	0	0	0	508	511
7	0	0	0	0	507	510
8	0	0	0	0	507	512
9	0	0	0	0	507	516
10	0	0	0	0	505	519
11	0	0	0	0	509	519
12	0	0	0	0	506	518
13	0	0	0	0	507	512
14	0	0	0	0	508	505
15	0	0	0	0	509	496
0	0	0	0	0	505	493
1	0	0	0	0	507	493
2	0	0	0	0	506	493
3	0	0	0	0	506	494
4	0	0	0	0	505	499
5	0	0	0	0	506	499
6	0	0	0	0	507	502
7	0	0	0	0	506	505
8	0	0	0	0	505	509
9	0	0	0	0	507	508
10	0	0	0	0	507	510
11	0	0	0	0	509	515
12	0	0	0	0	508	512
13	0	0	0	0	507	511
14	0	0	0	0	508	511
15	0	0	0	0	504	511
0	0	0	0	0	506	512
1	0	0	0	0	504	517
2	0	0	0	0	506	515
3	0	0	0	0	505	514
4	0	0	0	0	508	508
5	0	0	0	0	507	505
6	0	0	0	0	504	499
7	0	0	0	0	508	504
8	0	0	0	0	509	500
9	0	0	0	0	511	500
10	0	0	0	0	507	507
11	0	0	0	0	508	511
12	0	0	0	0	509	515
13	0	0	0	0	508	512
14	0	0	0	0	508	514
15	0	0	0	0	509	509
0	0	0	0	0	505	508
1	0	0	0	0	507	514
2	0	0	0	0	506	520
3	0	0	0	0	507	519
4	0	0	0	0	507	512
5	0	0	0	0	508	501
6	0	0	0	0	507	488
7	0	0	0	0	507	481
8	0	0	0	0	507	475
9	0	0	0	0	506	476
10	0	0	0	0	504	480
11	0	0	0	0	507	494
12	0	0	0	0	508	504
13	0	0	0	0	508	514
14	0	0	0	0	507	521
15	0	0	0	0	507	525
0	0	0	0	0	508	526
1	0	0	0	0	507	523
2	0	0	0	0	507	518
3	0	0	0	0	507	515
4	0	0	0	0	504	507
5	0	0	0	0	508	504
6	0	0	0	0	506	504
7	0	0	0	0	506	504
8	0	0	0	0	508	500
9	0	0	0	0	508	503
10	0	0	0	0	507	507
11	0	0	0	0	508	509
12	0	0	0	0	507	512
13	0	0	0	0	507	516
14	0	0	0	0	506	520
15	0	0	0	0	507	518
0	0	0	0	0	505	512
1	0	0	0	0	506	507
2	0	0	0	0	508	502
3	0	0	0	0	506	499
4	0	0	0	0	508	503
5	0	0	0	0	507	501
6	0	0	0	0	507	504
7	0	0	0	0	508	502
8	0	0	0	0	509	504
9	0	0	0	0	506	501
10	0	0	0	0	507	499
11	0	0	0	0	507	504
12	0	0	0	0	508	509
13	0	0	0	0	507	516
14	0	0	0	0	506	524
15	0	0	0	0	507	521
0	0	0	0	0	507	514
1	0	0	0	0	507	511
2	0	0	0	0	506	505
3	0	0	0	0	508	500
4	0	0	0	0	508	493
5	0	0	0	0	505	492
6	0	0	0	0	507	496
7	0	0	0	0	505	499
8	0	0	0	0	505	505
9	0	0	0	0	508	508
10	0	0	0	0	508	509
11	0	0	0	0	505	510
12	0	0	0	0	506	510
13	0	0	0	0	507	513
14	0	0	0	0	509	515
15	0	0	0	0	508	514
0	0	0	0	0	510	510
1	0	0	0	0	507	507
2	0	0	0	0	508	505
3	0	0	0	0	508	506
4	0	0	0	0	505	506
5	0	0	0	0	507	509
6	0	0	0	0	507	512
7	0	0	0	0	508	508
8	0	0	0	0	507	504
9	0	0	0	0	506	502
10	0	0	0	0	508	497
11	0	0	0	0	507	498
12	0	0	0	0	506	495
13	0	0	0	0	508	500
14	0	0	0	0	507	504
15	0	0	0	0	507	508
0	0	0	0	0	507	511
1	0	0	0	0	505	510
2	0	0	0	0	509	514
3	0	0	0	0	507	513
4	0	0	0	0	507	511
5	0	0	0	0	509	513
6	0	0	0	0	507	513
7	0	0	0	0	508	509
8	0	0	0	0	507	508
9	0	0	0	0	506	509
10	0	0	0	0	506	515
11	0	0	0	0	508	524
12	0	0	0	0	506	528
13	0	0	0	0	507	525
14	0	0	0	0	506	515
15	0	0	0	0	506	503
0	0	0	0	0	507	487
1	0	0	0	0	505	472
2	0	0	0	0	504	467
3	0	0	0	0	505	471
4	0	0	0	0	506	483
5	0	0	0	0	506	498
6	0	0	0	0	507	512
7	0	0	0	0	508	524
8	0	0	0	0	508	531
9	0	0	0	0	507	531
10	0	0	0	0	508	526
11	0	0	0	0	507	512
12	0	0	0	0	508	511
13	0	0	0	0	507	504
14	0	0	0	0	508	496
15	0	0	0	0	506	489
0	0	0	0	0	504	487
1	0	0	0	0	506	494
2	0	0	0	0	508	500
3	0	0	0	0	506	504
4	0	0	0	0	508	516
5	0	0	0	0	508	520
6	0	0	0	0	507	518
7	0	0	0	0	507	513
8	0	0	0	0	506	508
9	0	0	0	0	506	503
10	0	0	0	0	508	501
11	0	0	0	0	505	505
12	0	0	0	0	506	507
13	0	0	0	0	507	508
14	0	0	0	0	507	511
15	0	0	0	0	508	517
0	0	0	0	0	506	517
1	0	0	0	0	508	515
2	0	0	0	0	508	509
3	0	0	0	0	508	504
4	0	0	0	0	505	502
5	0	0	0	0	505	499
6	0	0	0	0	507	497
7	0	0	0	0	507	498
8	0	0	0	0	508	505
9	0	0	0	0	506	509
10	0	0	0	0	506	508
11	0	0	0	0	507	510
12	0	0	0	0	508	512
13	0	0	0	0	508	510
14	0	0	0	0	506	511
15	0	0	0	0	506	511
0	0	0	0	0	508	511
1	0	0	0	0	507	512
2	0	0	0	0	508	510
3	0	0	0	0	507	509
4	0	0	0	0	508	506
5	0	0	0	0	505	506
6	0	0	0	0	505	509
7	0	0	0	0	507	505
8	0	0	0	0	508	505
9	0	0	0	0	507	508
10	0	0	0	0	508	506
11	0	0	0	0	507	508
12	0	0	0	0	509	506
13	0	0	0	0	507	505
14	0	0	0	0	508	508
15	0	0	0	0	506	508
0	0	0	0	0	507	506
1	0	0	0	0	508	510
2	0	0	0	0	507	508
3	0	0	0	0	507	508
4	0	0	0	0	506	511
5	0	0	0	0	505	512
6	0	0	0	0	507	506
7	0	0	0	0	504	504
8	0	0	0	0	504	506
9	0	0	0	0	505	505
10	0	0	0	0	507	508
11	0	0	0	0	507	506
12	0	0	0	0	508	504
13	0	0	0	0	506	503
14	0	0	0	0	507	508
15	0	0	0	0	508	508
0	0	0	0	0	505	509
1	0	0	0	0	505	510
2	0	0	0	0	505	515
3	0	0	0	0	507	526
4	0	0	0	0	508	533
5	0	0	0	0	510	526
6	0	0	0	0	506	504
7	0	0	0	0	508	487
8	0	0	0	0	508	471
9	0	0	0	0	506	459
10	0	0	0	0	508	458
11	0	0	0	0	507	467
12	0	0	0	0	506	487
13	0	0	0	0	506	501
14	0	0	0	0	506	511
15	0	0	0	0	504	519
0	0	0	0	0	504	532
1	0	0	0	0	507	534
2	0	0	0	0	508	527
3	0	0	0	0	506	523
4	0	0	0	0	507	518
5	0	0	0	0	507	514
6	0	0	0	0	509	509
7	0	0	0	0	508	506
8	0	0	0	0	506	503
9	0	0	0	0	507	502
10	0	0	0	0	507	504
11	0	0	0	0	505	510
12	0	0	0	0	507	513
13	0	0	0	0	509	511
14	0	0	0	0	508	507
15	0	0	0	0	507	508
0	0	0	0	0	508	505
1	0	0	0	0	507	506
2	0	0	0	0	507	505
3	0	0	0	0	506	505
4	0	0	0	0	505	507
5	0	0	0	0	506	504
6	0	0	0	0	507	508
7	0	0	0	0	506	507
8	0	0	0	0	506	509
9	0	0	0	0	507	506
10	0	0	0	0	508	510
11	0	0	0	0	505	507
12	0	0	0	0	505	509
13	0	0	0	0	507	510
14	0	0	0	0	509	507
15	0	0	0	0	509	508
0	0	0	0	0	508	512
1	0	0	0	0	507	515
2	0	0	0	0	507	511
3	0	0	0	0	507	505
4	0	0	0	0	508	505
5	0	0	0	0	507	502
6	0	0	0	0	508	500
7	0	0	0	0	505	503
8	0	0	0	0	505	498
9	0	0	0	0	508	498
10	0	0	0	0	507	502
11	0	0	0	0	504	505
12	0	0	0	0	505	512
13	0	0	0	0	508	508
14	0	0	0	0	505	508
15	0	0	0	0	505	513
0	0	0	0	0	506	515
1	0	0	0	0	508	512
2	0	0	0	0	508	508
3	0	0	0	0	508	502
4	0	0	0	0	508	501
5	0	0	0	0	506	497
6	0	0	0	0	508	496
7	0	0	0	0	507	499
8	0	0	0	0	508	505
9	0	0	0	0	509	508
10	0	0	0	0	508	511
11	0	0	0	0	505	517
12	0	0	0	0	508	523
13	0	0	0	0	508	525
14	0	0	0	0	507	520
15	0	0	0	0	507	511
0	0	0	0	0	507	506
1	0	0	0	0	507	511
2	0	0	0	0	506	505
3	0	0	0	0	505	502
4	0	0	0	0	506	503
5	0	0	0	0	507	515
6	0	0	0	0	507	514
7	0	0	0	0	507	501
8	0	0	0	0	508	487
9	0	0	0	0	508	487
10	0	0	0	0	507	488
11	0	0	0	0	507	494
12	0	0	0	0	506	498
13	0	0	0	0	508	507
14	0	0	0	0	508	512
15	0	0	0	0	506	515
0	0	0	0	0	506	514
1	0	0	0	0	505	511
2	0	0	0	0	504	510
3	0	0	0	0	505	508
4	0	0	0	0	508	511
5	0	0	0	0	508	512
6	0	0	0	0	508	521
7	0	0	0	0	507	526
8	0	0	0	0	504	525
9	0	0	0	0	507	520
10	0	0	0	0	507	510
11	0	0	0	0	505	504
12	0	0	0	0	508	497
13	0	0	0	0	505	491
14	0	0	0	0	504	486
15	0	0	0	0	504	490
0	0	0	0	0	505	497
1	0	0	0	0	507	505
2	0	0	0	0	508	509
3	0	0	0	0	508	505
4	0	0	0	0	508	502
5	0	0	0	0	509	499
6	0	0	0	0	510	500
7	0	0	0	0	507	503
8	0	0	0	0	507	508
9	0	0	0	0	507	513
10	0	0	0	0	506	520
11	0	0	0	0	508	522
12	0	0	0	0	508	520
13	0	0	0	0	508	514
14	0	0	0	0	507	508
15	0	0	0	0	507	503
0	0	0	0	0	508	496
1	0	0	0	0	506	494
2	0	0	0	0	509	496
3	0	0	0	0	507	500
4	0	0	0	0	508	504
5	0	0	0	0	506	508
6	0	0	0	0	504	513
7	0	0	0	0	504	514
8	0	0	0	0	505	511
9	0	0	0	0	506	508
10	0	0	0	0	505	509
11	0	0	0	0	505	510
12	0	0	0	0	507	510
13	0	0	0	0	506	511
14	0	0	0	0	510	512
15	0	0	0	0	507	510
0	0	0	0	0	504	510
1	0	0	0	0	507	513
2	0	0	0	0	507	513
3	0	0	0	0	504	510
4	0	0	0	0	511	511
5	0	0	0	0	508	508
6	0	0	0	0	508	504
7	0	0	0	0	508	498
8	0	0	0	0	509	499
9	0	0	0	0	505	499
10	0	0	0	0	508	498
11	0	0	0	0	509	496
12	0	0	0	0	508	500
13	0	0	0	0	507	506
14	0	0	0	0	504	507
15	0	0	0	0	506	506
0	0	0	0	0	506	505
1	0	0	0	0	507	508
2	0	0	0	0	508	511
3	0	0	0	0	504	513
4	0	0	0	0	507	516
5	0	0	0	0	507	514
6	0	0	0	0	505	512
7	0	0	0	0	505	514
8	0	0	0	0	508	511
9	0	0	0	0	509	507
10	0	0	0	0	507	502
11	0	0	0	0	505	500
12	0	0	0	0	508	502
13	0	0	0	0	507	502
14	0	0	0	0	507	504
15	0	0	0	0	507	505
0	0	0	0	0	510	512
1	0	0	0	0	509	515
2	0	0	0	0	508	515
3	0	0	0	0	509	519
4	0	0	0	0	508	521
5	0	0	0	0	507	514
6	0	0	0	0	505	505
7	0	0	0	0	507	500
8	0	0	0	0	505	500
9	0	0	0	0	506	500
10	0	0	0	0	505	498
11	0	0	0	0	507	504
12	0	0	0	0	506	504
13	0	0	0	0	506	497
14	0	0	0	0	507	498
15	0	0	0	0	506	500
0	0	0	0	0	506	506
1	0	0	0	0	508	510
2	0	0	0	0	509	517
3	0	0	0	0	508	526
4	0	0	0	0	505	531
5	0	0	0	0	507	520
6	0	0	0	0	510	507
7	0	0	0	0	507	487
8	0	0	0	0	507	478
9	0	0	0	0	506	476
10	0	0	0	0	507	480
11	0	0	0	0	507	484
12	0	0	0	0	508	491
13	0	0	0	0	505	500
14	0	0	0	0	505	507
15	0	0	0	0	506	516
0	0	0	0	0	506	524
1	0	0	0	0	506	524
2	0	0	0	0	508	523
3	0	0	0	0	508	517
4	0	0	0	0	507	512
5	0	0	0	0	504	512
6	0	0	0	0	505	510
7	0	0	0	0	506	511
8	0	0	0	0	506	509
9	0	0	0	0	508	509
10	0	0	0	0	509	511
11	0	0	0	0	507	510
12	0	0	0	0	506	512
13	0	0	0	0	508	518
14	0	0	0	0	507	519
15	0	0	0	0	510	515
0	0	0	0	0	508	514
1	0	0	0	0	507	514
2	0	0	0	0	505	505
3	0	0	0	0	506	494
4	0	0	0	0	510	491
5	0	0	0	0	507	488
6	0	0	0	0	506	488
7	0	0	0	0	508	488
8	0	0	0	0	507	493
9	0	0	0	0	506	499
10	0	0	0	0	506	509
11	0	0	0	0	505	511
12	0	0	0	0	506	513
13	0	0	0	0	506	513
14	0	0	0	0	508	513
15	0	0	0	0	505	511
0	0	0	0	0	505	509
1	0	0	0	0	508	509
2	0	0	0	0	505	511
3	0	0	0	0	505	509
4	0	0	0	0	505	509
5	0	0	0	0	507	508
6	0	0	0	0	505	508
7	0	0	0	0	505	510
8	0	0	0	0	505	511
9	0	0	0	0	507	512
10	0	0	0	0	508	523
11	0	0	0	0	505	539
12	0	0	0	0	508	539
13	0	0	0	0	506	533
14	0	0	0	0	507	515
15	0	0	0	0	505	490
0	0	0	0	0	509	470
1	0	0	0	0	509	462
2	0	0	0	0	509	462
3	0	0	0	0	508	472
4	0	0	0	0	508	495
5	0	0	0	0	509	511
6	0	0	0	0	510	519
7	0	0	0	0	510	518
8	0	0	0	0	507	512
9	0	0	0	0	507	507
10	0	0	0	0	508	507
11	0	0	0	0	506	505
12	0	0	0	0	508	504
13	0	0	0	0	506	505
14	0	0	0	0	507	506
15	0	0	0	0	508	509
0	0	0	0	0	508	516
1	0	0	0	0	507	515
2	0	0	0	0	505	515
3	0	0	0	0	505	518
4	0	0	0	0	506	517
5	0	0	0	0	507	510
6	0	0	0	0	507	507
7	0	0	0	0	507	505
8	0	0	0	0	507	502
9	0	0	0	0	506	498
10	0	0	0	0	507	498
11	0	0	0	0	506	504
12	0	0	0	0	505	512
13	0	0	0	0	505	515
14	0	0	0	0	505	521
15	0	0	0	0	508	519
0	0	0	0	0	506	513
1	0	0	0	0	505	504
2	0	0	0	0	506	497
3	0	0	0	0	508	491
4	0	0	0	0	508	486
5	0	0	0	0	508	489
6	0	0	0	0	508	494
7	0	0	0	0	509	503
8	0	0	0	0	507	508
9	0	0	0	0	506	512
10	0	0	0	0	508	514
11	0	0	0	0	506	515
12	0	0	0	0	509	513
13	0	0	0	0	506	514
14	0	0	0	0	507	511
15	0	0	0	0	505	511
0	0	0	0	0	506	511
1	0	0	0	0	505	512
2	0	0	0	0	505	510
3	0	0	0	0	505	510
4	0	0	0	0	506	508
5	0	0	0	0	507	511
6	0	0	0	0	505	510
7	0	0	0	0	508	506
8	0	0	0	0	508	505
9	0	0	0	0	508	501
10	0	0	0	0	507	503
11	0	0	0	0	506	503
12	0	0	0	0	507	502
13	0	0	0	0	507	504
14	0	0	0	0	507	508
15	0	0	0	0	506	511
0	0	0	0	0	509	510
1	0	0	0	0	507	509
2	0	0	0	0	507	509
3	0	0	0	0	506	508
4	0	0	0	0	505	506
5	0	0	0	0	508	503
6	0	0	0	0	508	506
7	0	0	0	0	509	505
8	0	0	0	0	509	503
9	0	0	0	0	506	505
10	0	0	0	0	507	509
11	0	0	0	0	504	518
12	0	0	0	0	506	527
13	0	0	0	0	508	525
14	0	0	0	0	507	515
15	0	0	0	0	506	506
0	0	0	0	0	507	501
1	0	0	0	0	506	501
2	0	0	0	0	506	499
3	0	0	0	0	507	498
4	0	0	0	0	504	496
5	0	0	0	0	505	496
6	0	0	0	0	504	495
7	0	0	0	0	506	491
8	0	0	0	0	507	489
9	0	0	0	0	508	499
10	0	0	0	0	506	511
11	0	0	0	0	509	519
12	0	0	0	0	508	521
13	0	0	0	0	506	518
14	0	0	0	0	508	513
15	0	0	0	0	506	505
0	0	0	0	0	507	499
1	0	0	0	0	508	493
2	0	0	0	0	507	492
3	0	0	0	0	505	500
4	0	0	0	0	505	512
5	0	0	0	0	506	517
6	0	0	0	0	508	518
7	0	0	0	0	508	514
8	0	0	0	0	507	507
9	0	0	0	0	507	504
10	0	0	0	0	509	499
11	0	0	0	0	507	498
12	0	0	0	0	506	500
13	0	0	0	0	507	506
14	0	0	0	0	505	507
15	0	0	0	0	507	513
0	0	0	0	0	508	514
1	0	0	0	0	507	513
2	0	0	0	0	508	512
3	0	0	0	0	508	510
4	0	0	0	0	505	510
5	0	0	0	0	505	507
6	0	0	0	0	507	507
7	0	0	0	0	509	506
8	0	0	0	0	509	508
9	0	0	0	0	505	512
10	0	0	0	0	508	510
11	0	0	0	0	504	512
12	0	0	0	0	505	519
13	0	0	0	0	506	520
14	0	0	0	0	508	518
15	0	0	0	0	507	506
0	0	0	0	0	507	501
1	0	0	0	0	505	493
2	0	0	0	0	508	492
3	0	0	0	0	507	492
4	0	0	0	0	508	501
5	0	0	0	0	505	512
6	0	0	0	0	507	515
7	0	0	0	0	505	516
8	0	0	0	0	508	519
9	0	0	0	0	508	516
10	0	0	0	0	507	510
11	0	0	0	0	505	504
12	0	0	0	0	505	503
13	0	0	0	0	507	514
14	0	0	0	0	508	512
15	0	0	0	0	506	501
0	0	0	0	0	505	489
1	0	0	0	0	505	480
2	0	0	0	0	505	479
3	0	0	0	0	508	479
4	0	0	0	0	508	486
5	0	0	0	0	508	493
6	0	0	0	0	508	502
7	0	0	0	0	507	504
8	0	0	0	0	507	510
9	0	0	0	0	508	514
10	0	0	0	0	509	518
11	0	0	0	0	508	519
12	0	0	0	0	506	519
13	0	0	0	0	506	520
14	0	0	0	0	509	519
15	0	0	0	0	508	518
0	0	0	0	0	507	515
1	0	0	0	0	507	513
2	0	0	0	0	507	512
3	0	0	0	0	505	513
4	0	0	0	0	504	512
5	0	0	0	0	508	511
6	0	0	0	0	510	506
7	0	0	0	0	507	504
8	0	0	0	0	508	507
9	0	0	0	0	506	511
10	0	0	0	0	508	510
11	0	0	0	0	508	511
12	0	0	0	0	507	513
13	0	0	0	0	509	517
14	0	0	0	0	505	519
15	0	0	0	0	507	517
0	0	0	0	0	506	512
1	0	0	0	0	508	500
2	0	0	0	0	506	494
3	0	0	0	0	506	484
4	0	0	0	0	505	478
5	0	0	0	0	506	480
6	0	0	0	0	503	485
7	0	0	0	0	504	495
8	0	0	0	0	505	504
9	0	0	0	0	507	510
10	0	0	0	0	507	517
11	0	0	0	0	508	516
12	0	0	0	0	507	516
13	0	0	0	0	507	514
14	0	0	0	0	508	512
15	0	0	0	0	508	514
0	0	0	0	0	508	515
1	0	0	0	0	506	513
2	0	0	0	0	507	511
3	0	0	0	0	508	510
4	0	0	0	0	508	508
5	0	0	0	0	509	515
6	0	0	0	0	507	523
7	0	0	0	0	510	519
8	0	0	0	0	509	515
9	0	0	0	0	510	508
10	0	0	0	0	508	504
11	0	0	0	0	506	497
12	0	0	0	0	505	489
13	0	0	0	0	504	486
14	0	0	0	0	507	489
15	0	0	0	0	506	497
0	0	0	0	0	507	507
1	0	0	0	0	508	511
2	0	0	0	0	508	513
3	0	0	0	0	506	513
4	0	0	0	0	506	518
5	0	0	0	0	505	518
6	0	0	0	0	507	515
7	0	0	0	0	507	510
8	0	0	0	0	507	505
9	0	0	0	0	507	499
10	0	0	0	0	508	499
11	0	0	0	0	509	503
12	0	0	0	0	507	506
13	0	0	0	0	506	502
14	0	0	0	0	508	499
15	0	0	0	0	506	504
0	0	0	0	0	507	510
1	0	0	0	0	508	510
2	0	0	0	0	505	516
3	0	0	0	0	504	514
4	0	0	0	0	507	508
5	0	0	0	0	508	506
6	0	0	0	0	508	503
7	0	0	0	0	507	500
8	0	0	0	0	507	507
9	0	0	0	0	506	509
10	0	0	0	0	507	507
11	0	0	0	0	506	505
12	0	0	0	0	506	502
13	0	0	0	0	508	499
14	0	0	0	0	508	499
15	0	0	0	0	508	499
0	0	0	0	0	507	502
1	0	0	0	0	507	503
2	0	0	0	0	508	504
3	0	0	0	0	508	507
4	0	0	0	0	507	506
5	0	0	0	0	508	509
6	0	0	0	0	508	512
7	0	0	0	0	507	513
8	0	0	0	0	508	515
9	0	0	0	0	507	514
10	0	0	0	0	508	514
11	0	0	0	0	507	514
12	0	0	0	0	504	511
13	0	0	0	0	504	512
14	0	0	0	0	507	510
15	0	0	0	0	506	511
0	0	0	0	0	505	512
1	0	0	0	0	506	513
2	0	0	0	0	505	511
3	0	0	0	0	507	512
4	0	0	0	0	508	522
5	0	0	0	0	507	521
6	0	0	0	0	505	513
7	0	0	0	0	506	503
8	0	0	0	0	507	499
9	0	0	0	0	504	492
10	0	0	0	0	508	486
11	0	0	0	0	508	487
12	0	0	0	0	505	488
13	0	0	0	0	509	494
14	0	0	0	0	508	497
15	0	0	0	0	508	501
0	0	0	0	0	509	501
1	0	0	0	0	506	504
2	0	0	0	0	506	511
3	0	0	0	0	508	511
4	0	0	0	0	507	515
5	0	0	0	0	507	518
6	0	0	0	0	509	518
7	0	0	0	0	508	515
8	0	0	0	0	508	516
9	0	0	0	0	507	523
10	0	0	0	0	505	522
11	0	0	0	0	505	523
12	0	0	0	0	506	518
13	0	0	0	0	505	513
14	0	0	0	0	505	506
15	0	0	0	0	505	494
0	0	0	0	0	507	483
1	0	0	0	0	507	480
2	0	0	0	0	506	478
3	0	0	0	0	503	493
4	0	0	0	0	507	499
5	0	0	0	0	509	506
6	0	0	0	0	507	507
7	0	0	0	0	508	510
8	0	0	0	0	508	504
9	0	0	0	0	507	500
10	0	0	0	0	505	499
11	0	0	0	0	507	505
12	0	0	0	0	507	510
13	0	0	0	0	509	512
14	0	0	0	0	509	512
15	0	0	0	0	507	513
0	0	0	0	0	508	515
1	0	0	0	0	508	512
2	0	0	0	0	505	511
3	0	0	0	0	505	513
4	0	0	0	0	508	515
5	0	0	0	0	507	513
6	0	0	0	0	508	512
7	0	0	0	0	508	508
8	0	0	0	0	510	508
9	0	0	0	0	505	504
10	0	0	0	0	507	499
11	0	0	0	0	508	504
12	0	0	0	0	505	507
13	0	0	0	0	509	510
14	0	0	0	0	508	511
15	0	0	0	0	507	512
0	0	0	0	0	507	511
1	0	0	0	0	506	510
2	0	0	0	0	507	510
3	0	0	0	0	504	511
4	0	0	0	0	508	515
5	0	0	0	0	506	529
6	0	0	0	0	507	546
7	0	0	0	0	507	548
8	0	0	0	0	504	534
9	0	0	0	0	507	509
10	0	0	0	0	505	485
11	0	0	0	0	505	461
12	0	0	0	0	507	448
13	0	0	0	0	508	449
14	0	0	0	0	508	462
15	0	0	0	0	508	480
0	0	0	0	0	508	498
1	0	0	0	0	509	512
2	0	0	0	0	509	519
3	0	0	0	0	509	519
4	0	0	0	0	507	519
5	0	0	0	0	506	516
6	0	0	0	0	504	511
7	0	0	0	0	504	510
8	0	0	0	0	504	505
9	0	0	0	0	508	507
10	0	0	0	0	507	511
11	0	0	0	0	507	511
12	0	0	0	0	506	514
13	0	0	0	0	507	511
14	0	0	0	0	507	515
15	0	0	0	0	507	516
0	0	0	0	0	508	513
1	0	0	0	0	508	511
2	0	0	0	0	505	511
3	0	0	0	0	506	508
4	0	0	0	0	505	507
5	0	0	0	0	506	505
6	0	0	0	0	507	505
7	0	0	0	0	508	506
8	0	0	0	0	507	506
9	0	0	0	0	507	513
10	0	0	0	0	507	519
11	0	0	0	0	507	518
12	0	0	0	0	507	514
13	0	0	0	0	506	507
14	0	0	0	0	505	499
15	0	0	0	0	507	498
0	0	0	0	0	508	497
1	0	0	0	0	508	500
2	0	0	0	0	507	504
3	0	0	0	0	507	511
4	0	0	0	0	508	511
5	0	0	0	0	508	505
6	0	0	0	0	504	504
7	0	0	0	0	506	504
8	0	0	0	0	509	505
9	0	0	0	0	508	503
10	0	0	0	0	504	503
11	0	0	0	0	507	505
12	0	0	0	0	508	507
13	0	0	0	0	505	504
14	0	0	0	0	506	502
15	0	0	0	0	506	502
0	0	0	0	0	507	504
1	0	0	0	0	508	507
2	0	0	0	0	509	510
3	0	0	0	0	506	509
4	0	0	0	0	509	510
5	0	0	0	0	509	510
6	0	0	0	0	508	512
7	0	0	0	0	507	519
8	0	0	0	0	508	521
9	0	0	0	0	505	519
10	0	0	0	0	505	519
11	0	0	0	0	505	524
12	0	0	0	0	504	521
13	0	0	0	0	504	512
14	0	0	0	0	505	497
15	0	0	0	0	507	487
0	0	0	0	0	508	480
1	0	0	0	0	509	476
2	0	0	0	0	509	475
3	0	0	0	0	508	483
4	0	0	0	0	510	490
5	0	0	0	0	507	496
6	0	0	0	0	508	507
7	0	0	0	0	507	512
8	0	0	0	0	505	516
9	0	0	0	0	504	523
10	0	0	0	0	505	523
11	0	0	0	0	506	523
12	0	0	0	0	507	520
13	0	0	0	0	507	515
14	0	0	0	0	508	506
15	0	0	0	0	506	502
0	0	0	0	0	506	499
1	0	0	0	0	507	501
2	0	0	0	0	504	504
3	0	0	0	0	505	512
4	0	0	0	0	508	518
5	0	0	0	0	504	524
6	0	0	0	0	506	525
7	0	0	0	0	507	515
8	0	0	0	0	497	508
9	0	0	0	0	487	505
10	0	0	0	0	483	504
11	0	0	0	0	490	501
12	0	0	0	0	504	504
13	0	0	0	0	516	505
14	0	0	0	0	524	506
15	0	0	0	0	527	505
0	0	0	0	0	527	504
1	0	0	0	0	524	500
2	0	0	0	0	523	499
3	0	0	0	0	518	502
4	0	0	0	0	514	504
5	0	0	0	0	508	505
6	0	0	0	0	505	510
7	0	0	0	0	504	511
8	0	0	0	0	504	511
9	0	0	0	0	505	511
10	0	0	0	0	503	512
11	0	0	0	0	506	516
12	0	0	0	0	504	522
13	0	0	0	0	501	522
14	0	0	0	0	500	515
15	0	0	0	0	503	507
0	0	0	0	0	505	501
1	0	0	0	0	504	496
2	0	0	0	0	502	491
3	0	0	0	0	505	487
4	0	0	0	0	507	486
5	0	0	0	0	507	490
6	0	0	0	0	507	499
7	0	0	0	0	511	504
8	0	0	0	0	504	508
9	0	0	0	0	507	510
10	0	0	0	0	508	511
11	0	0	0	0	506	515
12	0	0	0	0	507	521
13	0	0	0	0	505	533
14	0	0	0	0	508	535
15	0	0	0	0	505	525
0	0	0	0	0	508	516
1	0	0	0	0	507	508
2	0	0	0	0	506	493
3	0	0	0	0	507	482
4	0	0	0	0	505	480
5	0	0	0	0	505	483
6	0	0	0	0	505	492
7	0	0	0	0	506	502
8	0	0	0	0	507	502
9	0	0	0	0	507	504
10	0	0	0	0	504	504
11	0	0	0	0	506	504
12	0	0	0	0	507	505
13	0	0	0	0	506	507
14	0	0	0	0	509	511
15	0	0	0	0	509	516
0	0	0	0	0	506	523
1	0	0	0	0	508	519
2	0	0	0	0	509	514
3	0	0	0	0	507	506
4	0	0	0	0	507	505
5	0	0	0	0	507	500
6	0	0	0	0	507	499
7	0	0	0	0	508	500
8	0	0	0	0	508	504
9	0	0	0	0	509	510
10	0	0	0	0	508	512
11	0	0	0	0	509	512
12	0	0	0	0	507	512
13	0	0	0	0	505	516
14	0	0	0	0	506	518
15	0	0	0	0	507	514
0	0	0	0	0	505	509
1	0	0	0	0	508	504
2	0	0	0	0	507	499
3	0	0	0	0	508	494
4	0	0	0	0	508	495
5	0	0	0	0	507	504
6	0	0	0	0	507	507
7	0	0	0	0	506	511
8	0	0	0	0	507	513
9	0	0	0	0	505	513
10	0	0	0	0	505	519
11	0	0	0	0	507	518
12	0	0	0	0	508	519
13	0	0	0	0	505	517
14	0	0	0	0	509	507
15	0	0	0	0	507	511
0	0	0	0	0	506	513
1	0	0	0	0	508	510
2	0	0	0	0	508	502
3	0	0	0	0	508	492
4	0	0	0	0	506	485
5	0	0	0	0	508	480
6	0	0	0	0	507	479
7	0	0	0	0	507	486
8	0	0	0	0	506	494
9	0	0	0	0	507	511
10	0	0	0	0	506	519
11	0	0	0	0	505	522
12	0	0	0	0	507	523
13	0	0	0	0	505	518
14	0	0	0	0	505	512
15	0	0	0	0	505	515
0	0	0	0	0	509	510
1	0	0	0	0	508	509
2	0	0	0	0	509	507
3	0	0	0	0	510	511
4	0	0	0	0	508	502
5	0	0	0	0	507	497
6	0	0	0	0	507	500
7	0	0	0	0	507	502
8	0	0	0	0	508	499
9	0	0	0	0	508	498
10	0	0	0	0	505	499
11	0	0	0	0	505	505
12	0	0	0	0	508	513
13	0	0	0	0	506	515
14	0	0	0	0	505	515
15	0	0	0	0	507	515
0	0	0	0	0	507	511
1	0	0	0	0	508	510
2	0	0	0	0	506	507
3	0	0	0	0	508	504
4	0	0	0	0	508	503
5	0	0	0	0	506	503
6	0	0	0	0	505	504
7	0	0	0	0	504	508
8	0	0	0	0	507	506
9	0	0	0	0	507	506
10	0	0	0	0	507	507
11	0	0	0	0	507	505
12	0	0	0	0	507	508
13	0	0	0	0	508	509
14	0	0	0	0	506	514
15	0	0	0	0	506	524
0	0	0	0	0	509	529
1	0	0	0	0	509	527
2	0	0	0	0	505	520
3	0	0	0	0	506	517
4	0	0	0	0	505	515
5	0	0	0	0	505	514
6	0	0	0	0	507	503
7	0	0	0	0	506	490
8	0	0	0	0	506	481
9	0	0	0	0	509	473
10	0	0	0	0	505	467
11	0	0	0	0	507	468
12	0	0	0	0	508	474
13	0	0	0	0	508	488
14	0	0	0	0	508	503
15	0	0	0	0	506	511
0	0	0	0	0	508	516
1	0	0	0	0	507	521
2	0	0	0	0	504	527
3	0	0	0	0	505	525
4	0	0	0	0	504	523
5	0	0	0	0	508	526
6	0	0	0	0	510	521
7	0	0	0	0	508	517
8	0	0	0	0	509	515
9	0	0	0	0	509	516
10	0	0	0	0	507	518
11	0	0	0	0	508	515
12	0	0	0	0	507	505
13	0	0	0	0	506	499
14	0	0	0	0	505	493
15	0	0	0	0	507	484
0	0	0	0	0	509	481
1	0	0	0	0	508	489
2	0	0	0	0	507	501
3	0	0	0	0	508	504
4	0	0	0	0	511	509
5	0	0	0	0	506	513
6	0	0	0	0	506	515
7	0	0	0	0	509	513
8	0	0	0	0	507	514
9	0	0	0	0	505	513
10	0	0	0	0	505	512
11	0	0	0	0	504	515
12	0	0	0	0	503	515
13	0	0	0	0	504	515
14	0	0	0	0	502	510
15	0	0	0	0	503	513
0	0	0	0	0	504	508
1	0	0	0	0	504	501
2	0	0	0	0	504	502
3	0	0	0	0	504	500
4	0	0	0	0	507	499
5	0	0	0	0	505	503
6	0	0	0	0	506	502
7	0	0	0	0	506	503
8	0	0	0	0	506	504
9	0	0	0	0	505	505
10	0	0	0	0	510	509
11	0	0	0	0	510	510
12	0	0	0	0	511	511
13	0	0	0	0	511	516
14	0	0	0	0	508	516
15	0	0	0	0	507	519
0	0	0	0	0	505	525
1	0	0	0	0	507	525
2	0	0	0	0	503	516
3	0	0	0	0	504	499
4	0	0	0	0	505	489
5	0	0	0	0	504	482
6	0	0	0	0	504	476
7	0	0	0	0	505	480
8	0	0	0	0	509	489
9	0	0	0	0	509	501
10	0	0	0	0	512	516
11	0	0	0	0	510	521
12	0	0	0	0	511	520
13	0	0	0	0	508	511
14	0	0	0	0	508	507
15	0	0	0	0	508	504
0	0	0	0	0	505	507
1	0	0	0	0	508	511
2	0	0	0	0	507	522
3	0	0	0	0	505	526
4	0	0	0	0	507	517
5	0	0	0	0	509	510
6	0	0	0	0	508	504
7	0	0	0	0	508	497
8	0	0	0	0	505	496
9	0	0	0	0	507	498
10	0	0	0	0	505	500
11	0	0	0	0	505	504
12	0	0	0	0	506	510
13	0	0	0	0	506	511
14	0	0	0	0	506	514
15	0	0	0	0	497	524
0	0	0	0	0	487	526
1	0	0	0	0	490	519
2	0	0	0	0	499	505
3	0	0	0	0	511	496
4	0	0	0	0	519	491
5	0	0	0	0	520	485
6	0	0	0	0	524	481
7	0	0	0	0	519	484
8	0	0	0	0	518	492
9	0	0	0	0	516	502
10	0	0	0	0	518	508
11	0	0	0	0	517	512
12	0	0	0	0	509	512
13	0	0	0	0	506	514
14	0	0	0	0	504	515
15	0	0	0	0	496	519
0	0	0	0	0	487	515
1	0	0	0	0	460	514
2	0	0	0	0	457	513
3	0	0	0	0	483	512
4	0	0	0	0	509	511
5	0	0	0	0	527	512
6	0	0	0	0	540	512
7	0	0	0	0	541	519
8	0	0	0	0	536	527
9	0	0	0	0	529	524
10	0	0	0	0	527	517
11	0	0	0	0	519	508
12	0	0	0	0	512	496
13	0	0	0	0	504	490
14	0	0	0	0	503	483
15	0	0	0	0	504	483
0	0	0	0	0	502	491
1	0	0	0	0	502	504
2	0	0	0	0	500	509
3	0	0	0	0	502	512
4	0	0	0	0	503	513
5	0	0	0	0	496	508
6	0	0	0	0	497	504
7	0	0	0	0	503	501
8	0	0	0	0	503	501
9	0	0	0	0	504	502
10	0	0	0	0	504	506
11	0	0	0	0	503	507
12	0	0	0	0	505	509
13	0	0	0	0	505	511
14	0	0	0	0	505	512
15	0	0	0	0	504	511
0	0	0	0	0	503	512
1	0	0	0	0	505	511
2	0	0	0	0	507	511
3	0	0	0	0	509	511
4	0	0	0	0	507	513
5	0	0	0	0	509	513
6	0	0	0	0	508	513
7	0	0	0	0	507	516
8	0	0	0	0	505	514
9	0	0	0	0	506	507
10	0	0	0	0	507	500
11	0	0	0	0	507	496
12	0	0	0	0	507	499
13	0	0	0	0	505	500
14	0	0	0	0	504	508
15	0	0	0	0	507	515
0	0	0	0	0	506	519
1	0	0	0	0	506	518
2	0	0	0	0	506	510
3	0	0	0	0	508	507
4	0	0	0	0	506	498
5	0	0	0	0	506	492
6	0	0	0	0	505	494
7	0	0	0	0	508	500
8	0	0	0	0	507	503
9	0	0	0	0	506	504
10	0	0	0	0	506	504
11	0	0	0	0	507	506
12	0	0	0	0	508	512
13	0	0	0	0	510	511
14	0	0	0	0	510	508
15	0	0	0	0	508	504
0	0	0	0	0	505	502
1	0	0	0	0	508	499
2	0	0	0	0	508	496
3	0	0	0	0	507	501
4	0	0	0	0	507	508
5	0	0	0	0	508	518
6	0	0	0	0	507	524
7	0	0	0	0	505	533
8	0	0	0	0	507	538
9	0	0	0	0	507	529
10	0	0	0	0	504	512
11	0	0	0	0	505	498
12	0	0	0	0	504	491
13	0	0	0	0	506	487
14	0	0	0	0	508	486
15	0	0	0	0	511	489
0	0	0	0	0	513	492
1	0	0	0	0	514	498
2	0	0	0	0	514	500
3	0	0	0	0	511	501
4	0	0	0	0	507	500
5	0	0	0	0	503	503
6	0	0	0	0	501	504
7	0	0	0	0	497	507
8	0	0	0	0	498	506
9	0	0	0	0	501	509
10	0	0	0	0	497	510
11	0	0	0	0	503	514
12	0	0	0	0	501	512
13	0	0	0	0	501	513
14	0	0	0	0	503	514
15	0	0	0	0	508	513
0	0	0	0	0	509	514
1	0	0	0	0	511	514
2	0	0	0	0	510	512
3	0	0	0	0	509	513
4	0	0	0	0	508	512
5	0	0	0	0	509	513
6	0	0	0	0	510	514
7	0	0	0	0	508	512
8	0	0	0	0	508	506
9	0	0	0	0	508	506
10	0	0	0	0	508	513
11	0	0	0	0	508	514
12	0	0	0	0	506	508
13	0	0	0	0	509	506
14	0	0	0	0	509	506
15	0	0	0	0	509	504
0	0	0	0	0	509	499
1	0	0	0	0	507	500
2	0	0	0	0	508	498
3	0	0	0	0	507	501
4	0	0	0	0	507	502
5	0	0	0	0	508	504
6	0	0	0	0	506	503
7	0	0	0	0	507	500
8	0	0	0	0	508	500
9	0	0	0	0	507	509
10	0	0	0	0	505	518
11	0	0	0	0	505	526
12	0	0	0	0	507	529
13	0	0	0	0	504	521
14	0	0	0	0	505	505
15	0	0	0	0	507	487
0	0	0	0	0	504	474
1	0	0	0	0	500	471
2	0	0	0	0	497	478
3	0	0	0	0	498	492
4	0	0	0	0	500	506
5	0	0	0	0	503	516
6	0	0	0	0	509	519
7	0	0	0	0	518	526
8	0	0	0	0	521	532
9	0	0	0	0	520	533
10	0	0	0	0	519	528
11	0	0	0	0	515	517
12	0	0	0	0	513	504
13	0	0	0	0	514	495
14	0	0	0	0	506	487
15	0	0	0	0	504	484
0	0	0	0	0	499	486
1	0	0	0	0	499	492
2	0	0	0	0	499	501
3	0	0	0	0	503	512
4	0	0	0	0	507	513
5	0	0	0	0	503	513
6	0	0	0	0	504	515
7	0	0	0	0	506	513
8	0	0	0	0	505	513
9	0	0	0	0	507	509
10	0	0	0	0	505	508
11	0	0	0	0	505	515
12	0	0	0	0	507	528
13	0	0	0	0	507	535
14	0	0	0	0	507	527
15	0	0	0	0	508	511
0	0	0	0	0	509	497
1	0	0	0	0	507	486
2	0	0	0	0	508	476
3	0	0	0	0	508	476
4	0	0	0	0	508	478
5	0	0	0	0	508	492
6	0	0	0	0	507	500
7	0	0	0	0	509	509
8	0	0	0	0	507	515
9	0	0	0	0	506	516
10	0	0	0	0	505	518
11	0	0	0	0	505	517
12	0	0	0	0	506	518
13	0	0	0	0	508	519
14	0	0	0	0	507	524
15	0	0	0	0	508	524
0	0	0	0	0	505	519
1	0	0	0	0	507	517
2	0	0	0	0	505	515
3	0	0	0	0	508	512
4	0	0	0	0	506	499
5	0	0	0	0	505	489
6	0	0	0	0	507	477
7	0	0	0	0	509	477
8	0	0	0	0	509	476
9	0	0	0	0	506	480
10	0	0	0	0	506	491
11	0	0	0	0	506	502
12	0	0	0	0	506	512
13	0	0	0	0	507	520
14	0	0	0	0	508	532
15	0	0	0	0	506	534
0	0	0	0	0	508	526
1	0	0	0	0	506	517
2	0	0	0	0	507	511
3	0	0	0	0	508	507
4	0	0	0	0	508	509
5	0	0	0	0	508	516
6	0	0	0	0	509	529
7	0	0	0	0	510	529
8	0	0	0	0	506	515
9	0	0	0	0	504	495
10	0	0	0	0	500	481
11	0	0	0	0	497	476
12	0	0	0	0	497	472
13	0	0	0	0	499	477
14	0	0	0	0	505	485
15	0	0	0	0	511	505
0	0	0	0	0	513	523
1	0	0	0	0	514	532
2	0	0	0	0	512	529
3	0	0	0	0	510	521
4	0	0	0	0	513	511
5	0	0	0	0	514	504
6	0	0	0	0	514	502
7	0	0	0	0	513	499
8	0	0	0	0	513	502
9	0	0	0	0	509	503
10	0	0	0	0	507	503
11	0	0	0	0	506	503
12	0	0	0	0	501	503
13	0	0	0	0	498	507
14	0	0	0	0	498	515
15	0	0	0	0	503	523
0	0	0	0	0	504	523
1	0	0	0	0	509	521
2	0	0	0	0	508	514
3	0	0	0	0	509	507
4	0	0	0	0	508	501
5	0	0	0	0	505	497
6	0	0	0	0	507	501
7	0	0	0	0	503	503
8	0	0	0	0	504	503
9	0	0	0	0	505	510
10	0	0	0	0	508	514
11	0	0	0	0	511	513
12	0	0	0	0	511	511
13	0	0	0	0	510	505
14	0	0	0	0	508	507
15	0	0	0	0	507	509
0	0	0	0	0	509	508
1	0	0	0	0	510	503
2	0	0	0	0	508	499
3	0	0	0	0	504	500
4	0	0	0	0	502	504
5	0	0	0	0	504	502
6	0	0	0	0	506	504
7	0	0	0	0	503	506
8	0	0	0	0	506	508
9	0	0	0	0	505	511
10	0	0	0	0	505	512
11	0	0	0	0	505	509
12	0	0	0	0	507	507
13	0	0	0	0	506	500
14	0	0	0	0	507	501
15	0	0	0	0	505	499
0	0	0	0	0	506	505
1	0	0	0	0	507	511
2	0	0	0	0	505	515
3	0	0	0	0	507	514
4	0	0	0	0	508	511
5	0	0	0	0	509	508
6	0	0	0	0	507	504
7	0	0	0	0	508	511
8	0	0	0	0	507	516
9	0	0	0	0	507	517
10	0	0	0	0	508	518
11	0	0	0	0	506	525
12	0	0	0	0	508	519
13	0	0	0	0	507	506
14	0	0	0	0	508	496
15	0	0	0	0	508	487
0	0	0	0	0	506	493
1	0	0	0	0	505	497
2	0	0	0	0	507	498
3	0	0	0	0	506	508
4	0	0	0	0	505	526
5	0	0	0	0	508	537
6	0	0	0	0	505	526
7	0	0	0	0	507	511
8	0	0	0	0	506	496
9	0	0	0	0	504	482
10	0	0	0	0	505	476
11	0	0	0	0	505	471
12	0	0	0	0	504	482
13	0	0	0	0	507	494
14	0	0	0	0	509	502
15	0	0	0	0	507	508
0	0	0	0	0	508	517
1	0	0	0	0	508	516
2	0	0	0	0	507	510
