# OpenSignals Text File Format. Version 1
# {"98:D3:11:FE:05:A2": {"position": 0, "device": "bitalino_rev", "device name": "98:D3:11:FE:05:A2", "device connection": "BTH98:D3:11:FE:05:A2", "sampling rate": 1000, "resolution": [4, 1, 1, 1, 1, 10, 10], "firmware version": 1282, "comments": "", "keywords": "", "mode": 0, "sync interval": 2, "date": "2026-6-26", "time": "15:55:14.463", "channels": [1, 2], "sensor": ["EMGBITREV", "EMGBITREV"], "label": ["A1", "A2"], "column": ["nSeq", "I1", "I2", "O1", "O2", "A1", "A2"], "special": [{}, {}], "digital IO": [0, 0, 1, 1]}}
# EndOfHeader
0	0	0	0	0	499	511	
1	0	0	0	0	506	512	
2	0	0	0	0	511	510	
3	0	0	0	0	513	513	
4	0	0	0	0	512	511	
5	0	0	0	0	511	509	
6	0	0	0	0	512	511	
7	0	0	0	0	511	509	
8	0	0	0	0	512	510	
9	0	0	0	0	516	511	
10	0	0	0	0	522	511	
11	0	0	0	0	518	513	
12	0	0	0	0	514	510	
13	0	0	0	0	504	512	
14	0	0	0	0	495	510	
15	0	0	0	0	499	510	
0	0	0	0	0	508	510	
1	0	0	0	0	514	509	
2	0	0	0	0	523	511	
3	0	0	0	0	524	512	
4	0	0	0	0	520	509	
5	0	0	0	0	510	512	
6	0	0	0	0	503	510	
7	0	0	0	0	505	514	
8	0	0	0	0	510	510	
9	0	0	0	0	519	512	
10	0	0	0	0	517	512	
11	0	0	0	0	519	511	
12	0	0	0	0	513	511	
13	0	0	0	0	511	511	
14	0	0	0	0	513	512	
15	0	0	0	0	508	511	
0	0	0	0	0	505	510	
1	0	0	0	0	507	511	
2	0	0	0	0	509	512	
3	0	0	0	0	506	510	
4	0	0	0	0	505	511	
5	0	0	0	0	505	511	
6	0	0	0	0	511	510	
7	0	0	0	0	513	508	
8	0	0	0	0	512	510	
9	0	0	0	0	507	510	
10	0	0	0	0	509	509	
11	0	0	0	0	510	510	
12	0	0	0	0	515	511	
13	0	0	0	0	519	511	
14	0	0	0	0	519	512	
15	0	0	0	0	519	512	
0	0	0	0	0	512	513	
1	0	0	0	0	510	512	
2	0	0	0	0	501	509	
3	0	0	0	0	503	510	
4	0	0	0	0	507	509	
5	0	0	0	0	506	509	
6	0	0	0	0	499	508	
7	0	0	0	0	500	509	
8	0	0	0	0	502	511	
9	0	0	0	0	506	511	
10	0	0	0	0	506	508	
11	0	0	0	0	513	511	
12	0	0	0	0	518	510	
13	0	0	0	0	527	512	
14	0	0	0	0	515	510	
15	0	0	0	0	507	509	
0	0	0	0	0	505	512	
1	0	0	0	0	507	512	
2	0	0	0	0	510	514	
3	0	0	0	0	515	510	
4	0	0	0	0	516	512	
5	0	0	0	0	514	510	
6	0	0	0	0	513	512	
7	0	0	0	0	510	511	
8	0	0	0	0	508	510	
9	0	0	0	0	509	510	
10	0	0	0	0	510	512	
11	0	0	0	0	508	511	
12	0	0	0	0	507	510	
13	0	0	0	0	510	510	
14	0	0	0	0	512	510	
15	0	0	0	0	513	511	
0	0	0	0	0	511	509	
1	0	0	0	0	513	509	
2	0	0	0	0	512	509	
3	0	0	0	0	510	511	
4	0	0	0	0	507	510	
5	0	0	0	0	510	509	
6	0	0	0	0	509	509	
7	0	0	0	0	509	511	
8	0	0	0	0	509	510	
9	0	0	0	0	515	512	
10	0	0	0	0	515	508	
11	0	0	0	0	515	510	
12	0	0	0	0	513	510	
13	0	0	0	0	504	514	
14	0	0	0	0	490	513	
15	0	0	0	0	497	513	
0	0	0	0	0	506	511	
1	0	0	0	0	514	513	
2	0	0	0	0	520	510	
3	0	0	0	0	527	510	
4	0	0	0	0	531	510	
5	0	0	0	0	521	511	
6	0	0	0	0	513	511	
7	0	0	0	0	512	508	
8	0	0	0	0	509	508	
9	0	0	0	0	510	511	
10	0	0	0	0	508	509	
11	0	0	0	0	505	509	
12	0	0	0	0	502	508	
13	0	0	0	0	498	512	
14	0	0	0	0	495	512	
15	0	0	0	0	489	508	
0	0	0	0	0	490	508	
1	0	0	0	0	501	509	
2	0	0	0	0	513	509	
3	0	0	0	0	525	512	
4	0	0	0	0	534	511	
5	0	0	0	0	530	512	
6	0	0	0	0	530	512	
7	0	0	0	0	522	508	
8	0	0	0	0	516	510	
9	0	0	0	0	511	510	
10	0	0	0	0	512	512	
11	0	0	0	0	513	510	
12	0	0	0	0	516	510	
13	0	0	0	0	513	511	
14	0	0	0	0	507	511	
15	0	0	0	0	506	510	
0	0	0	0	0	497	511	
1	0	0	0	0	492	510	
2	0	0	0	0	498	510	
3	0	0	0	0	504	511	
4	0	0	0	0	509	511	
5	0	0	0	0	517	513	
6	0	0	0	0	511	511	
7	0	0	0	0	508	511	
8	0	0	0	0	510	512	
9	0	0	0	0	515	511	
10	0	0	0	0	520	512	
11	0	0	0	0	517	509	
12	0	0	0	0	515	511	
13	0	0	0	0	510	512	
14	0	0	0	0	508	511	
15	0	0	0	0	508	510	
0	0	0	0	0	510	512	
1	0	0	0	0	507	510	
2	0	0	0	0	508	511	
3	0	0	0	0	506	510	
4	0	0	0	0	510	510	
5	0	0	0	0	514	511	
6	0	0	0	0	514	510	
7	0	0	0	0	515	510	
8	0	0	0	0	513	512	
9	0	0	0	0	510	512	
10	0	0	0	0	502	510	
11	0	0	0	0	494	510	
12	0	0	0	0	492	511	
13	0	0	0	0	501	511	
14	0	0	0	0	509	511	
15	0	0	0	0	514	509	
0	0	0	0	0	515	510	
1	0	0	0	0	519	511	
2	0	0	0	0	512	510	
3	0	0	0	0	510	511	
4	0	0	0	0	509	509	
5	0	0	0	0	511	511	
6	0	0	0	0	515	511	
7	0	0	0	0	517	510	
8	0	0	0	0	521	511	
9	0	0	0	0	518	512	
10	0	0	0	0	515	512	
11	0	0	0	0	517	511	
12	0	0	0	0	511	509	
13	0	0	0	0	510	511	
14	0	0	0	0	502	510	
15	0	0	0	0	492	511	
0	0	0	0	0	489	510	
1	0	0	0	0	495	510	
2	0	0	0	0	500	510	
3	0	0	0	0	499	510	
4	0	0	0	0	508	510	
5	0	0	0	0	529	512	
6	0	0	0	0	540	512	
7	0	0	0	0	535	512	
8	0	0	0	0	520	511	
9	0	0	0	0	518	510	
10	0	0	0	0	519	512	
11	0	0	0	0	515	512	
12	0	0	0	0	517	513	
13	0	0	0	0	514	511	
14	0	0	0	0	515	511	
15	0	0	0	0	515	512	
0	0	0	0	0	518	510	
1	0	0	0	0	511	510	
2	0	0	0	0	502	510	
3	0	0	0	0	504	509	
4	0	0	0	0	499	508	
5	0	0	0	0	502	509	
6	0	0	0	0	510	511	
7	0	0	0	0	511	508	
8	0	0	0	0	507	509	
9	0	0	0	0	506	507	
10	0	0	0	0	511	509	
11	0	0	0	0	511	511	
12	0	0	0	0	507	513	
13	0	0	0	0	504	511	
14	0	0	0	0	499	512	
15	0	0	0	0	500	511	
0	0	0	0	0	497	511	
1	0	0	0	0	498	509	
2	0	0	0	0	505	514	
3	0	0	0	0	510	513	
4	0	0	0	0	510	512	
5	0	0	0	0	510	510	
6	0	0	0	0	513	511	
7	0	0	0	0	511	509	
8	0	0	0	0	515	510	
9	0	0	0	0	512	508	
10	0	0	0	0	518	511	
11	0	0	0	0	518	511	
12	0	0	0	0	518	510	
13	0	0	0	0	517	511	
14	0	0	0	0	513	509	
15	0	0	0	0	512	510	
0	0	0	0	0	512	509	
1	0	0	0	0	509	510	
2	0	0	0	0	507	513	
3	0	0	0	0	505	512	
4	0	0	0	0	504	513	
5	0	0	0	0	507	510	
6	0	0	0	0	509	510	
7	0	0	0	0	513	510	
8	0	0	0	0	513	511	
9	0	0	0	0	513	512	
10	0	0	0	0	512	508	
11	0	0	0	0	515	510	
12	0	0	0	0	520	511	
13	0	0	0	0	522	509	
14	0	0	0	0	522	511	
15	0	0	0	0	519	509	
0	0	0	0	0	515	508	
1	0	0	0	0	515	510	
2	0	0	0	0	508	511	
3	0	0	0	0	504	511	
4	0	0	0	0	504	510	
5	0	0	0	0	506	511	
6	0	0	0	0	503	510	
7	0	0	0	0	504	510	
8	0	0	0	0	508	512	
9	0	0	0	0	502	509	
10	0	0	0	0	501	512	
11	0	0	0	0	504	511	
12	0	0	0	0	507	510	
13	0	0	0	0	514	511	
14	0	0	0	0	511	509	
15	0	0	0	0	509	509	
0	0	0	0	0	511	512	
1	0	0	0	0	510	511	
2	0	0	0	0	510	512	
3	0	0	0	0	508	511	
4	0	0	0	0	510	512	
5	0	0	0	0	511	510	
6	0	0	0	0	513	509	
7	0	0	0	0	515	510	
8	0	0	0	0	513	511	
9	0	0	0	0	507	509	
10	0	0	0	0	505	511	
11	0	0	0	0	500	512	
12	0	0	0	0	501	511	
13	0	0	0	0	496	510	
14	0	0	0	0	497	512	
15	0	0	0	0	501	511	
0	0	0	0	0	514	512	
1	0	0	0	0	525	511	
2	0	0	0	0	524	510	
3	0	0	0	0	527	510	
4	0	0	0	0	521	510	
5	0	0	0	0	518	512	
6	0	0	0	0	506	512	
7	0	0	0	0	510	512	
8	0	0	0	0	511	510	
9	0	0	0	0	513	511	
10	0	0	0	0	515	512	
11	0	0	0	0	511	511	
12	0	0	0	0	508	513	
13	0	0	0	0	504	512	
14	0	0	0	0	502	512	
15	0	0	0	0	499	512	
0	0	0	0	0	494	514	
1	0	0	0	0	503	512	
2	0	0	0	0	520	514	
3	0	0	0	0	528	513	
4	0	0	0	0	528	512	
5	0	0	0	0	526	510	
6	0	0	0	0	519	511	
7	0	0	0	0	505	510	
8	0	0	0	0	502	511	
9	0	0	0	0	497	510	
10	0	0	0	0	499	510	
11	0	0	0	0	501	510	
12	0	0	0	0	510	513	
13	0	0	0	0	513	511	
14	0	0	0	0	519	511	
15	0	0	0	0	523	511	
0	0	0	0	0	526	513	
1	0	0	0	0	530	511	
2	0	0	0	0	532	513	
3	0	0	0	0	528	510	
4	0	0	0	0	524	509	
5	0	0	0	0	515	508	
6	0	0	0	0	513	510	
7	0	0	0	0	512	508	
8	0	0	0	0	507	506	
9	0	0	0	0	503	507	
10	0	0	0	0	496	504	
11	0	0	0	0	494	509	
12	0	0	0	0	490	508	
13	0	0	0	0	494	506	
14	0	0	0	0	496	505	
15	0	0	0	0	500	505	
0	0	0	0	0	509	506	
1	0	0	0	0	516	508	
2	0	0	0	0	516	508	
3	0	0	0	0	515	509	
4	0	0	0	0	513	506	
5	0	0	0	0	519	510	
6	0	0	0	0	512	511	
7	0	0	0	0	506	509	
8	0	0	0	0	507	508	
9	0	0	0	0	510	510	
10	0	0	0	0	506	509	
11	0	0	0	0	506	509	
12	0	0	0	0	508	511	
13	0	0	0	0	503	512	
14	0	0	0	0	497	512	
15	0	0	0	0	499	513	
0	0	0	0	0	503	516	
1	0	0	0	0	507	513	
2	0	0	0	0	516	513	
3	0	0	0	0	520	514	
4	0	0	0	0	518	515	
5	0	0	0	0	519	512	
6	0	0	0	0	520	514	
7	0	0	0	0	513	514	
8	0	0	0	0	508	511	
9	0	0	0	0	521	513	
10	0	0	0	0	527	512	
11	0	0	0	0	530	510	
12	0	0	0	0	520	512	
13	0	0	0	0	511	514	
14	0	0	0	0	510	512	
15	0	0	0	0	506	511	
0	0	0	0	0	504	511	
1	0	0	0	0	506	512	
2	0	0	0	0	507	509	
3	0	0	0	0	509	510	
4	0	0	0	0	511	510	
5	0	0	0	0	505	512	
6	0	0	0	0	502	513	
7	0	0	0	0	505	511	
8	0	0	0	0	510	510	
9	0	0	0	0	514	510	
10	0	0	0	0	515	510	
11	0	0	0	0	513	509	
12	0	0	0	0	513	511	
13	0	0	0	0	512	511	
14	0	0	0	0	507	511	
15	0	0	0	0	497	511	
0	0	0	0	0	499	508	
1	0	0	0	0	506	511	
2	0	0	0	0	515	513	
3	0	0	0	0	518	513	
4	0	0	0	0	519	514	
5	0	0	0	0	519	514	
6	0	0	0	0	520	511	
7	0	0	0	0	514	510	
8	0	0	0	0	509	508	
9	0	0	0	0	500	512	
10	0	0	0	0	499	511	
11	0	0	0	0	504	511	
12	0	0	0	0	508	512	
13	0	0	0	0	503	512	
14	0	0	0	0	504	510	
15	0	0	0	0	509	509	
0	0	0	0	0	512	510	
1	0	0	0	0	514	511	
2	0	0	0	0	512	511	
3	0	0	0	0	516	511	
4	0	0	0	0	517	511	
5	0	0	0	0	517	511	
6	0	0	0	0	518	511	
7	0	0	0	0	516	511	
8	0	0	0	0	511	509	
9	0	0	0	0	509	509	
10	0	0	0	0	502	508	
11	0	0	0	0	506	512	
12	0	0	0	0	513	510	
13	0	0	0	0	515	506	
14	0	0	0	0	521	511	
15	0	0	0	0	522	508	
0	0	0	0	0	527	509	
1	0	0	0	0	524	509	
2	0	0	0	0	519	509	
3	0	0	0	0	520	511	
4	0	0	0	0	513	511	
5	0	0	0	0	508	510	
6	0	0	0	0	504	510	
7	0	0	0	0	501	512	
8	0	0	0	0	503	510	
9	0	0	0	0	510	512	
10	0	0	0	0	511	512	
11	0	0	0	0	515	512	
12	0	0	0	0	512	512	
13	0	0	0	0	508	511	
14	0	0	0	0	508	509	
15	0	0	0	0	499	511	
0	0	0	0	0	505	510	
1	0	0	0	0	506	510	
2	0	0	0	0	504	512	
3	0	0	0	0	509	511	
4	0	0	0	0	512	511	
5	0	0	0	0	515	511	
6	0	0	0	0	520	511	
7	0	0	0	0	516	510	
8	0	0	0	0	515	509	
9	0	0	0	0	515	510	
10	0	0	0	0	516	510	
11	0	0	0	0	512	508	
12	0	0	0	0	511	510	
13	0	0	0	0	508	510	
14	0	0	0	0	499	510	
15	0	0	0	0	487	510	
0	0	0	0	0	486	509	
1	0	0	0	0	487	511	
2	0	0	0	0	488	509	
3	0	0	0	0	492	511	
4	0	0	0	0	500	511	
5	0	0	0	0	514	510	
6	0	0	0	0	526	512	
7	0	0	0	0	541	509	
8	0	0	0	0	552	511	
9	0	0	0	0	550	512	
10	0	0	0	0	544	512	
11	0	0	0	0	526	512	
12	0	0	0	0	512	509	
13	0	0	0	0	512	510	
14	0	0	0	0	508	513	
15	0	0	0	0	498	513	
0	0	0	0	0	480	510	
1	0	0	0	0	479	512	
2	0	0	0	0	484	511	
3	0	0	0	0	485	511	
4	0	0	0	0	497	510	
5	0	0	0	0	503	509	
6	0	0	0	0	512	513	
7	0	0	0	0	520	508	
8	0	0	0	0	518	512	
9	0	0	0	0	519	510	
10	0	0	0	0	518	512	
11	0	0	0	0	512	510	
12	0	0	0	0	510	509	
13	0	0	0	0	511	510	
14	0	0	0	0	510	510	
15	0	0	0	0	511	512	
0	0	0	0	0	511	510	
1	0	0	0	0	510	510	
2	0	0	0	0	513	511	
3	0	0	0	0	512	511	
4	0	0	0	0	513	513	
5	0	0	0	0	513	510	
6	0	0	0	0	514	511	
7	0	0	0	0	518	512	
8	0	0	0	0	510	510	
9	0	0	0	0	510	510	
10	0	0	0	0	505	510	
11	0	0	0	0	508	512	
12	0	0	0	0	508	513	
13	0	0	0	0	508	512	
14	0	0	0	0	504	511	
15	0	0	0	0	506	511	
0	0	0	0	0	506	511	
1	0	0	0	0	510	510	
2	0	0	0	0	504	510	
3	0	0	0	0	508	508	
4	0	0	0	0	505	508	
5	0	0	0	0	516	511	
6	0	0	0	0	522	511	
7	0	0	0	0	533	510	
8	0	0	0	0	532	511	
9	0	0	0	0	520	509	
10	0	0	0	0	515	513	
11	0	0	0	0	511	510	
12	0	0	0	0	502	510	
13	0	0	0	0	499	512	
14	0	0	0	0	505	511	
15	0	0	0	0	507	512	
0	0	0	0	0	512	512	
1	0	0	0	0	511	511	
2	0	0	0	0	515	510	
3	0	0	0	0	512	508	
4	0	0	0	0	511	510	
5	0	0	0	0	503	511	
6	0	0	0	0	505	511	
7	0	0	0	0	511	510	
8	0	0	0	0	515	511	
9	0	0	0	0	511	510	
10	0	0	0	0	514	510	
11	0	0	0	0	509	513	
12	0	0	0	0	502	510	
13	0	0	0	0	500	510	
14	0	0	0	0	494	512	
15	0	0	0	0	504	513	
0	0	0	0	0	516	511	
1	0	0	0	0	524	511	
2	0	0	0	0	524	511	
3	0	0	0	0	527	511	
4	0	0	0	0	520	510	
5	0	0	0	0	513	510	
6	0	0	0	0	509	511	
7	0	0	0	0	511	511	
8	0	0	0	0	508	509	
9	0	0	0	0	509	510	
10	0	0	0	0	508	510	
11	0	0	0	0	506	508	
12	0	0	0	0	504	508	
13	0	0	0	0	508	511	
14	0	0	0	0	508	511	
15	0	0	0	0	508	511	
0	0	0	0	0	513	510	
1	0	0	0	0	514	508	
2	0	0	0	0	514	511	
3	0	0	0	0	511	513	
4	0	0	0	0	511	513	
5	0	0	0	0	508	512	
6	0	0	0	0	510	512	
7	0	0	0	0	508	511	
8	0	0	0	0	509	512	
9	0	0	0	0	511	513	
10	0	0	0	0	508	510	
11	0	0	0	0	505	510	
12	0	0	0	0	504	510	
13	0	0	0	0	505	510	
14	0	0	0	0	497	511	
15	0	0	0	0	498	511	
0	0	0	0	0	504	510	
1	0	0	0	0	511	511	
2	0	0	0	0	504	508	
3	0	0	0	0	506	508	
4	0	0	0	0	510	510	
5	0	0	0	0	512	510	
6	0	0	0	0	519	510	
7	0	0	0	0	519	510	
8	0	0	0	0	522	511	
9	0	0	0	0	530	511	
10	0	0	0	0	528	511	
11	0	0	0	0	527	513	
12	0	0	0	0	525	513	
13	0	0	0	0	521	508	
14	0	0	0	0	519	509	
15	0	0	0	0	511	510	
0	0	0	0	0	513	511	
1	0	0	0	0	510	511	
2	0	0	0	0	506	509	
3	0	0	0	0	500	512	
4	0	0	0	0	502	511	
5	0	0	0	0	503	512	
6	0	0	0	0	503	511	
7	0	0	0	0	506	511	
8	0	0	0	0	513	513	
9	0	0	0	0	514	512	
10	0	0	0	0	515	511	
11	0	0	0	0	509	511	
12	0	0	0	0	501	511	
13	0	0	0	0	505	512	
14	0	0	0	0	504	511	
15	0	0	0	0	510	512	
0	0	0	0	0	512	511	
1	0	0	0	0	514	511	
2	0	0	0	0	511	509	
3	0	0	0	0	508	511	
4	0	0	0	0	505	509	
5	0	0	0	0	510	511	
6	0	0	0	0	511	508	
7	0	0	0	0	514	512	
8	0	0	0	0	511	508	
9	0	0	0	0	510	512	
10	0	0	0	0	506	511	
11	0	0	0	0	507	508	
12	0	0	0	0	512	512	
13	0	0	0	0	508	511	
14	0	0	0	0	511	513	
15	0	0	0	0	513	512	
0	0	0	0	0	512	511	
1	0	0	0	0	505	511	
2	0	0	0	0	508	510	
3	0	0	0	0	505	511	
4	0	0	0	0	507	511	
5	0	0	0	0	509	512	
6	0	0	0	0	516	512	
7	0	0	0	0	514	508	
8	0	0	0	0	515	513	
9	0	0	0	0	510	512	
10	0	0	0	0	509	512	
11	0	0	0	0	508	508	
12	0	0	0	0	510	509	
13	0	0	0	0	515	512	
14	0	0	0	0	516	510	
15	0	0	0	0	525	510	
0	0	0	0	0	518	512	
1	0	0	0	0	508	511	
2	0	0	0	0	504	511	
3	0	0	0	0	499	510	
4	0	0	0	0	505	510	
5	0	0	0	0	509	508	
6	0	0	0	0	519	512	
7	0	0	0	0	515	511	
8	0	0	0	0	512	512	
9	0	0	0	0	512	511	
10	0	0	0	0	519	513	
11	0	0	0	0	515	508	
12	0	0	0	0	517	511	
13	0	0	0	0	518	514	
14	0	0	0	0	507	513	
15	0	0	0	0	494	514	
0	0	0	0	0	489	514	
1	0	0	0	0	495	510	
2	0	0	0	0	491	511	
3	0	0	0	0	495	511	
4	0	0	0	0	495	509	
5	0	0	0	0	502	509	
6	0	0	0	0	511	512	
7	0	0	0	0	519	510	
8	0	0	0	0	528	511	
9	0	0	0	0	527	511	
10	0	0	0	0	523	508	
11	0	0	0	0	521	511	
12	0	0	0	0	518	510	
13	0	0	0	0	511	511	
14	0	0	0	0	505	508	
15	0	0	0	0	503	508	
0	0	0	0	0	505	508	
1	0	0	0	0	510	510	
2	0	0	0	0	514	509	
3	0	0	0	0	511	510	
4	0	0	0	0	510	508	
5	0	0	0	0	510	509	
6	0	0	0	0	509	509	
7	0	0	0	0	512	511	
8	0	0	0	0	506	509	
9	0	0	0	0	509	510	
10	0	0	0	0	507	508	
11	0	0	0	0	506	510	
12	0	0	0	0	503	511	
13	0	0	0	0	507	510	
14	0	0	0	0	510	510	
15	0	0	0	0	512	511	
0	0	0	0	0	515	512	
1	0	0	0	0	511	511	
2	0	0	0	0	511	511	
3	0	0	0	0	503	510	
4	0	0	0	0	504	512	
5	0	0	0	0	506	511	
6	0	0	0	0	513	513	
7	0	0	0	0	509	510	
8	0	0	0	0	518	511	
9	0	0	0	0	514	506	
10	0	0	0	0	506	509	
11	0	0	0	0	507	510	
12	0	0	0	0	509	511	
13	0	0	0	0	513	512	
14	0	0	0	0	523	511	
15	0	0	0	0	533	511	
0	0	0	0	0	530	509	
1	0	0	0	0	514	511	
2	0	0	0	0	511	509	
3	0	0	0	0	510	509	
4	0	0	0	0	511	512	
5	0	0	0	0	510	512	
6	0	0	0	0	510	512	
7	0	0	0	0	511	510	
8	0	0	0	0	515	511	
9	0	0	0	0	513	509	
10	0	0	0	0	509	509	
11	0	0	0	0	508	512	
12	0	0	0	0	509	509	
13	0	0	0	0	510	510	
14	0	0	0	0	509	510	
15	0	0	0	0	512	508	
0	0	0	0	0	512	510	
1	0	0	0	0	512	508	
2	0	0	0	0	515	509	
3	0	0	0	0	515	511	
4	0	0	0	0	516	512	
5	0	0	0	0	511	513	
6	0	0	0	0	510	512	
7	0	0	0	0	508	514	
8	0	0	0	0	504	512	
9	0	0	0	0	505	510	
10	0	0	0	0	508	513	
11	0	0	0	0	509	511	
12	0	0	0	0	509	512	
13	0	0	0	0	507	510	
14	0	0	0	0	499	511	
15	0	0	0	0	503	513	
0	0	0	0	0	507	508	
1	0	0	0	0	508	512	
2	0	0	0	0	507	512	
3	0	0	0	0	509	511	
4	0	0	0	0	516	511	
5	0	0	0	0	521	510	
6	0	0	0	0	519	510	
7	0	0	0	0	520	509	
8	0	0	0	0	517	510	
9	0	0	0	0	513	507	
10	0	0	0	0	500	508	
11	0	0	0	0	489	506	
12	0	0	0	0	497	508	
13	0	0	0	0	510	509	
14	0	0	0	0	519	511	
15	0	0	0	0	531	510	
0	0	0	0	0	530	511	
1	0	0	0	0	515	511	
2	0	0	0	0	505	510	
3	0	0	0	0	502	510	
4	0	0	0	0	503	511	
5	0	0	0	0	506	508	
6	0	0	0	0	502	508	
7	0	0	0	0	506	512	
8	0	0	0	0	517	511	
9	0	0	0	0	524	511	
10	0	0	0	0	525	511	
11	0	0	0	0	523	510	
12	0	0	0	0	518	512	
13	0	0	0	0	509	510	
14	0	0	0	0	506	511	
15	0	0	0	0	507	512	
0	0	0	0	0	508	512	
1	0	0	0	0	507	511	
2	0	0	0	0	507	512	
3	0	0	0	0	499	511	
4	0	0	0	0	502	513	
5	0	0	0	0	503	512	
6	0	0	0	0	504	511	
7	0	0	0	0	508	510	
8	0	0	0	0	514	509	
9	0	0	0	0	512	511	
10	0	0	0	0	516	511	
11	0	0	0	0	519	511	
12	0	0	0	0	517	509	
13	0	0	0	0	511	511	
14	0	0	0	0	507	510	
15	0	0	0	0	507	510	
0	0	0	0	0	509	511	
1	0	0	0	0	509	511	
2	0	0	0	0	511	509	
3	0	0	0	0	514	511	
4	0	0	0	0	507	510	
5	0	0	0	0	501	510	
6	0	0	0	0	508	511	
7	0	0	0	0	516	510	
8	0	0	0	0	518	511	
9	0	0	0	0	518	511	
10	0	0	0	0	516	512	
11	0	0	0	0	508	511	
12	0	0	0	0	513	508	
13	0	0	0	0	515	511	
14	0	0	0	0	512	510	
15	0	0	0	0	503	508	
0	0	0	0	0	502	511	
1	0	0	0	0	505	510	
2	0	0	0	0	506	512	
3	0	0	0	0	503	509	
4	0	0	0	0	507	511	
5	0	0	0	0	508	510	
6	0	0	0	0	515	512	
7	0	0	0	0	514	512	
8	0	0	0	0	515	511	
9	0	0	0	0	511	511	
10	0	0	0	0	507	515	
11	0	0	0	0	512	511	
12	0	0	0	0	516	510	
13	0	0	0	0	520	508	
14	0	0	0	0	524	510	
15	0	0	0	0	519	510	
0	0	0	0	0	513	510	
1	0	0	0	0	512	510	
2	0	0	0	0	503	510	
3	0	0	0	0	502	511	
4	0	0	0	0	504	512	
5	0	0	0	0	508	511	
6	0	0	0	0	508	510	
7	0	0	0	0	507	511	
8	0	0	0	0	508	512	
9	0	0	0	0	511	510	
10	0	0	0	0	510	511	
11	0	0	0	0	507	510	
12	0	0	0	0	511	510	
13	0	0	0	0	507	513	
14	0	0	0	0	502	512	
15	0	0	0	0	504	510	
0	0	0	0	0	510	512	
1	0	0	0	0	510	511	
2	0	0	0	0	512	510	
3	0	0	0	0	511	511	
4	0	0	0	0	513	509	
5	0	0	0	0	511	510	
6	0	0	0	0	510	510	
7	0	0	0	0	508	510	
8	0	0	0	0	505	512	
9	0	0	0	0	503	511	
10	0	0	0	0	511	509	
11	0	0	0	0	515	507	
12	0	0	0	0	513	508	
13	0	0	0	0	513	510	
14	0	0	0	0	511	510	
15	0	0	0	0	510	512	
0	0	0	0	0	513	511	
1	0	0	0	0	519	511	
2	0	0	0	0	524	512	
3	0	0	0	0	523	510	
4	0	0	0	0	522	508	
5	0	0	0	0	520	510	
6	0	0	0	0	513	508	
7	0	0	0	0	510	509	
8	0	0	0	0	504	510	
9	0	0	0	0	504	510	
10	0	0	0	0	503	509	
11	0	0	0	0	499	509	
12	0	0	0	0	502	510	
13	0	0	0	0	504	509	
14	0	0	0	0	511	508	
15	0	0	0	0	510	510	
0	0	0	0	0	515	508	
1	0	0	0	0	515	511	
2	0	0	0	0	513	512	
3	0	0	0	0	506	511	
4	0	0	0	0	507	511	
5	0	0	0	0	508	511	
6	0	0	0	0	517	514	
7	0	0	0	0	515	511	
8	0	0	0	0	515	511	
9	0	0	0	0	514	510	
10	0	0	0	0	510	512	
11	0	0	0	0	510	511	
12	0	0	0	0	513	513	
13	0	0	0	0	510	511	
14	0	0	0	0	511	511	
15	0	0	0	0	510	512	
0	0	0	0	0	512	513	
1	0	0	0	0	509	512	
2	0	0	0	0	509	511	
3	0	0	0	0	510	511	
4	0	0	0	0	509	511	
5	0	0	0	0	510	511	
6	0	0	0	0	507	511	
7	0	0	0	0	505	511	
8	0	0	0	0	507	511	
9	0	0	0	0	510	511	
10	0	0	0	0	511	510	
11	0	0	0	0	513	513	
12	0	0	0	0	511	511	
13	0	0	0	0	511	511	
14	0	0	0	0	512	510	
15	0	0	0	0	515	510	
0	0	0	0	0	510	504	
1	0	0	0	0	511	505	
2	0	0	0	0	511	507	
3	0	0	0	0	510	507	
4	0	0	0	0	512	510	
5	0	0	0	0	507	511	
6	0	0	0	0	513	511	
7	0	0	0	0	511	510	
8	0	0	0	0	511	511	
9	0	0	0	0	512	514	
10	0	0	0	0	512	515	
11	0	0	0	0	508	511	
12	0	0	0	0	508	513	
13	0	0	0	0	507	512	
14	0	0	0	0	511	513	
15	0	0	0	0	510	510	
0	0	0	0	0	508	514	
1	0	0	0	0	507	512	
2	0	0	0	0	510	511	
3	0	0	0	0	507	512	
4	0	0	0	0	505	511	
5	0	0	0	0	510	511	
6	0	0	0	0	512	509	
7	0	0	0	0	511	509	
8	0	0	0	0	512	512	
9	0	0	0	0	508	509	
10	0	0	0	0	512	513	
11	0	0	0	0	512	512	
12	0	0	0	0	511	512	
13	0	0	0	0	513	513	
14	0	0	0	0	511	508	
15	0	0	0	0	509	511	
0	0	0	0	0	511	511	
1	0	0	0	0	510	510	
2	0	0	0	0	508	511	
3	0	0	0	0	503	510	
4	0	0	0	0	505	511	
5	0	0	0	0	499	509	
6	0	0	0	0	500	510	
7	0	0	0	0	505	511	
8	0	0	0	0	507	511	
9	0	0	0	0	508	510	
10	0	0	0	0	508	510	
11	0	0	0	0	504	514	
12	0	0	0	0	504	511	
13	0	0	0	0	500	513	
14	0	0	0	0	498	515	
15	0	0	0	0	514	515	
0	0	0	0	0	525	515	
1	0	0	0	0	533	512	
2	0	0	0	0	539	514	
3	0	0	0	0	542	513	
4	0	0	0	0	543	514	
5	0	0	0	0	533	513	
6	0	0	0	0	524	515	
7	0	0	0	0	517	512	
8	0	0	0	0	511	513	
9	0	0	0	0	510	511	
10	0	0	0	0	511	510	
11	0	0	0	0	512	510	
12	0	0	0	0	511	508	
13	0	0	0	0	509	511	
14	0	0	0	0	499	509	
15	0	0	0	0	492	510	
0	0	0	0	0	495	509	
1	0	0	0	0	497	510	
2	0	0	0	0	499	510	
3	0	0	0	0	503	511	
4	0	0	0	0	502	509	
5	0	0	0	0	506	508	
6	0	0	0	0	509	504	
7	0	0	0	0	518	504	
8	0	0	0	0	523	505	
9	0	0	0	0	526	504	
10	0	0	0	0	525	504	
11	0	0	0	0	520	504	
12	0	0	0	0	515	506	
13	0	0	0	0	509	507	
14	0	0	0	0	501	505	
15	0	0	0	0	499	505	
0	0	0	0	0	497	504	
1	0	0	0	0	498	505	
2	0	0	0	0	504	507	
3	0	0	0	0	504	509	
4	0	0	0	0	505	509	
5	0	0	0	0	504	509	
6	0	0	0	0	503	511	
7	0	0	0	0	505	512	
8	0	0	0	0	505	510	
9	0	0	0	0	510	513	
10	0	0	0	0	510	511	
11	0	0	0	0	512	513	
12	0	0	0	0	515	516	
13	0	0	0	0	515	512	
14	0	0	0	0	514	515	
15	0	0	0	0	514	513	
0	0	0	0	0	515	514	
1	0	0	0	0	514	516	
2	0	0	0	0	512	514	
3	0	0	0	0	511	512	
4	0	0	0	0	512	511	
5	0	0	0	0	511	515	
6	0	0	0	0	511	514	
7	0	0	0	0	511	512	
8	0	0	0	0	514	514	
9	0	0	0	0	516	511	
10	0	0	0	0	507	508	
11	0	0	0	0	513	508	
12	0	0	0	0	511	510	
13	0	0	0	0	502	512	
14	0	0	0	0	488	510	
15	0	0	0	0	496	511	
0	0	0	0	0	509	510	
1	0	0	0	0	521	508	
2	0	0	0	0	527	508	
3	0	0	0	0	526	510	
4	0	0	0	0	526	512	
5	0	0	0	0	519	512	
6	0	0	0	0	509	510	
7	0	0	0	0	506	512	
8	0	0	0	0	506	509	
9	0	0	0	0	511	512	
10	0	0	0	0	509	511	
11	0	0	0	0	512	511	
12	0	0	0	0	512	513	
13	0	0	0	0	509	511	
14	0	0	0	0	509	510	
15	0	0	0	0	509	508	
0	0	0	0	0	509	511	
1	0	0	0	0	511	510	
2	0	0	0	0	510	510	
3	0	0	0	0	512	511	
4	0	0	0	0	509	510	
5	0	0	0	0	505	513	
6	0	0	0	0	511	511	
7	0	0	0	0	514	511	
8	0	0	0	0	513	510	
9	0	0	0	0	514	514	
10	0	0	0	0	508	511	
11	0	0	0	0	506	510	
12	0	0	0	0	508	511	
13	0	0	0	0	507	510	
14	0	0	0	0	503	508	
15	0	0	0	0	507	511	
0	0	0	0	0	509	510	
1	0	0	0	0	508	507	
2	0	0	0	0	512	510	
3	0	0	0	0	513	511	
4	0	0	0	0	512	509	
5	0	0	0	0	512	510	
6	0	0	0	0	513	512	
7	0	0	0	0	513	510	
8	0	0	0	0	509	510	
9	0	0	0	0	502	512	
10	0	0	0	0	501	511	
11	0	0	0	0	505	509	
12	0	0	0	0	509	510	
13	0	0	0	0	511	511	
14	0	0	0	0	514	510	
15	0	0	0	0	513	510	
0	0	0	0	0	513	509	
1	0	0	0	0	514	510	
2	0	0	0	0	512	511	
3	0	0	0	0	514	511	
4	0	0	0	0	516	510	
5	0	0	0	0	516	511	
6	0	0	0	0	514	513	
7	0	0	0	0	511	512	
8	0	0	0	0	511	511	
9	0	0	0	0	511	512	
10	0	0	0	0	509	511	
11	0	0	0	0	512	512	
12	0	0	0	0	512	514	
13	0	0	0	0	510	512	
14	0	0	0	0	507	511	
15	0	0	0	0	502	511	
0	0	0	0	0	510	513	
1	0	0	0	0	506	512	
2	0	0	0	0	506	511	
3	0	0	0	0	511	511	
4	0	0	0	0	515	509	
5	0	0	0	0	512	509	
6	0	0	0	0	511	508	
7	0	0	0	0	510	510	
8	0	0	0	0	507	508	
9	0	0	0	0	505	509	
10	0	0	0	0	500	511	
11	0	0	0	0	504	511	
12	0	0	0	0	515	512	
13	0	0	0	0	522	511	
14	0	0	0	0	522	510	
15	0	0	0	0	518	511	
0	0	0	0	0	504	510	
1	0	0	0	0	502	510	
2	0	0	0	0	503	511	
3	0	0	0	0	509	510	
4	0	0	0	0	514	508	
5	0	0	0	0	521	508	
6	0	0	0	0	523	509	
7	0	0	0	0	521	512	
8	0	0	0	0	512	511	
9	0	0	0	0	509	511	
10	0	0	0	0	508	513	
11	0	0	0	0	507	510	
12	0	0	0	0	512	511	
13	0	0	0	0	512	511	
14	0	0	0	0	509	512	
15	0	0	0	0	504	512	
0	0	0	0	0	513	511	
1	0	0	0	0	516	511	
2	0	0	0	0	518	511	
3	0	0	0	0	519	511	
4	0	0	0	0	519	511	
5	0	0	0	0	516	510	
6	0	0	0	0	513	511	
7	0	0	0	0	504	510	
8	0	0	0	0	506	509	
9	0	0	0	0	509	510	
10	0	0	0	0	510	508	
11	0	0	0	0	512	511	
12	0	0	0	0	504	511	
13	0	0	0	0	507	513	
14	0	0	0	0	510	513	
15	0	0	0	0	508	513	
0	0	0	0	0	507	509	
1	0	0	0	0	504	513	
2	0	0	0	0	504	515	
3	0	0	0	0	499	514	
4	0	0	0	0	495	515	
5	0	0	0	0	491	516	
6	0	0	0	0	500	513	
7	0	0	0	0	509	510	
8	0	0	0	0	520	511	
9	0	0	0	0	529	513	
10	0	0	0	0	532	511	
11	0	0	0	0	518	507	
12	0	0	0	0	508	509	
13	0	0	0	0	508	510	
14	0	0	0	0	519	511	
15	0	0	0	0	532	507	
0	0	0	0	0	531	509	
1	0	0	0	0	533	511	
2	0	0	0	0	524	510	
3	0	0	0	0	512	509	
4	0	0	0	0	508	511	
5	0	0	0	0	504	509	
6	0	0	0	0	487	510	
7	0	0	0	0	486	511	
8	0	0	0	0	495	513	
9	0	0	0	0	505	511	
10	0	0	0	0	512	508	
11	0	0	0	0	516	511	
12	0	0	0	0	516	511	
13	0	0	0	0	509	510	
14	0	0	0	0	507	510	
15	0	0	0	0	502	508	
0	0	0	0	0	504	510	
1	0	0	0	0	509	510	
2	0	0	0	0	511	510	
3	0	0	0	0	506	509	
4	0	0	0	0	512	510	
5	0	0	0	0	511	511	
6	0	0	0	0	515	509	
7	0	0	0	0	516	509	
8	0	0	0	0	518	510	
9	0	0	0	0	515	511	
10	0	0	0	0	513	510	
11	0	0	0	0	512	510	
12	0	0	0	0	509	511	
13	0	0	0	0	507	510	
14	0	0	0	0	510	509	
15	0	0	0	0	514	510	
0	0	0	0	0	513	509	
1	0	0	0	0	512	510	
2	0	0	0	0	510	511	
3	0	0	0	0	505	508	
4	0	0	0	0	508	509	
5	0	0	0	0	511	510	
6	0	0	0	0	511	509	
7	0	0	0	0	510	511	
8	0	0	0	0	504	508	
9	0	0	0	0	505	513	
10	0	0	0	0	510	512	
11	0	0	0	0	511	510	
12	0	0	0	0	511	511	
13	0	0	0	0	500	509	
14	0	0	0	0	503	513	
15	0	0	0	0	499	511	
0	0	0	0	0	499	511	
1	0	0	0	0	502	512	
2	0	0	0	0	512	510	
3	0	0	0	0	524	515	
4	0	0	0	0	532	511	
5	0	0	0	0	533	510	
6	0	0	0	0	535	507	
7	0	0	0	0	525	509	
8	0	0	0	0	515	511	
9	0	0	0	0	514	511	
10	0	0	0	0	504	510	
11	0	0	0	0	501	509	
12	0	0	0	0	505	511	
13	0	0	0	0	510	510	
14	0	0	0	0	512	510	
15	0	0	0	0	508	509	
0	0	0	0	0	505	510	
1	0	0	0	0	510	512	
2	0	0	0	0	511	512	
3	0	0	0	0	507	511	
4	0	0	0	0	508	510	
5	0	0	0	0	510	509	
6	0	0	0	0	509	510	
7	0	0	0	0	495	509	
8	0	0	0	0	496	508	
9	0	0	0	0	504	508	
10	0	0	0	0	512	511	
11	0	0	0	0	520	510	
12	0	0	0	0	527	510	
13	0	0	0	0	531	513	
14	0	0	0	0	523	511	
15	0	0	0	0	519	513	
0	0	0	0	0	512	512	
1	0	0	0	0	510	513	
2	0	0	0	0	508	513	
3	0	0	0	0	507	511	
4	0	0	0	0	511	510	
5	0	0	0	0	510	510	
6	0	0	0	0	507	509	
7	0	0	0	0	507	510	
8	0	0	0	0	499	510	
9	0	0	0	0	498	512	
10	0	0	0	0	500	508	
11	0	0	0	0	510	512	
12	0	0	0	0	504	510	
13	0	0	0	0	499	510	
14	0	0	0	0	504	509	
15	0	0	0	0	507	510	
0	0	0	0	0	510	511	
1	0	0	0	0	505	511	
2	0	0	0	0	510	512	
3	0	0	0	0	519	513	
4	0	0	0	0	525	511	
5	0	0	0	0	526	511	
6	0	0	0	0	528	511	
7	0	0	0	0	522	511	
8	0	0	0	0	518	510	
9	0	0	0	0	516	512	
10	0	0	0	0	518	511	
11	0	0	0	0	514	511	
12	0	0	0	0	511	513	
13	0	0	0	0	510	511	
14	0	0	0	0	507	510	
15	0	0	0	0	509	510	
0	0	0	0	0	507	514	
1	0	0	0	0	507	510	
2	0	0	0	0	508	511	
3	0	0	0	0	504	508	
4	0	0	0	0	504	510	
5	0	0	0	0	508	511	
6	0	0	0	0	513	508	
7	0	0	0	0	519	511	
8	0	0	0	0	514	511	
9	0	0	0	0	517	510	
10	0	0	0	0	511	510	
11	0	0	0	0	504	508	
12	0	0	0	0	507	511	
13	0	0	0	0	503	511	
14	0	0	0	0	505	510	
15	0	0	0	0	511	511	
0	0	0	0	0	512	510	
1	0	0	0	0	510	511	
2	0	0	0	0	508	510	
3	0	0	0	0	509	511	
4	0	0	0	0	508	511	
5	0	0	0	0	505	513	
6	0	0	0	0	500	508	
7	0	0	0	0	494	509	
8	0	0	0	0	503	510	
9	0	0	0	0	512	512	
10	0	0	0	0	519	510	
11	0	0	0	0	527	512	
12	0	0	0	0	516	508	
13	0	0	0	0	518	511	
14	0	0	0	0	515	511	
15	0	0	0	0	515	510	
0	0	0	0	0	515	508	
1	0	0	0	0	517	509	
2	0	0	0	0	523	511	
3	0	0	0	0	524	511	
4	0	0	0	0	519	510	
5	0	0	0	0	511	512	
6	0	0	0	0	509	511	
7	0	0	0	0	499	508	
8	0	0	0	0	496	511	
9	0	0	0	0	498	510	
10	0	0	0	0	506	510	
11	0	0	0	0	504	509	
12	0	0	0	0	508	511	
13	0	0	0	0	510	510	
14	0	0	0	0	511	511	
15	0	0	0	0	511	512	
0	0	0	0	0	510	512	
1	0	0	0	0	513	509	
2	0	0	0	0	515	511	
3	0	0	0	0	516	514	
4	0	0	0	0	503	511	
5	0	0	0	0	495	509	
6	0	0	0	0	499	511	
7	0	0	0	0	496	512	
8	0	0	0	0	500	511	
9	0	0	0	0	515	512	
10	0	0	0	0	511	508	
11	0	0	0	0	511	512	
12	0	0	0	0	519	510	
13	0	0	0	0	524	510	
14	0	0	0	0	528	511	
15	0	0	0	0	522	510	
0	0	0	0	0	521	509	
1	0	0	0	0	517	511	
2	0	0	0	0	511	512	
3	0	0	0	0	506	509	
4	0	0	0	0	507	510	
5	0	0	0	0	511	511	
6	0	0	0	0	510	510	
7	0	0	0	0	513	508	
8	0	0	0	0	511	511	
9	0	0	0	0	508	512	
10	0	0	0	0	503	510	
11	0	0	0	0	507	510	
12	0	0	0	0	510	509	
13	0	0	0	0	508	509	
14	0	0	0	0	505	509	
15	0	0	0	0	505	510	
0	0	0	0	0	506	511	
1	0	0	0	0	508	512	
2	0	0	0	0	507	512	
3	0	0	0	0	504	508	
4	0	0	0	0	510	511	
5	0	0	0	0	506	510	
6	0	0	0	0	507	509	
7	0	0	0	0	511	512	
8	0	0	0	0	513	510	
9	0	0	0	0	518	511	
10	0	0	0	0	518	512	
11	0	0	0	0	519	511	
12	0	0	0	0	522	512	
13	0	0	0	0	518	509	
14	0	0	0	0	512	509	
15	0	0	0	0	510	512	
0	0	0	0	0	510	510	
1	0	0	0	0	506	511	
2	0	0	0	0	504	511	
3	0	0	0	0	502	514	
4	0	0	0	0	501	510	
5	0	0	0	0	510	510	
6	0	0	0	0	507	511	
7	0	0	0	0	508	511	
8	0	0	0	0	507	511	
9	0	0	0	0	508	512	
10	0	0	0	0	511	512	
11	0	0	0	0	509	509	
12	0	0	0	0	511	511	
13	0	0	0	0	516	510	
14	0	0	0	0	519	512	
15	0	0	0	0	522	513	
0	0	0	0	0	520	512	
1	0	0	0	0	519	510	
2	0	0	0	0	513	511	
3	0	0	0	0	509	510	
4	0	0	0	0	504	511	
5	0	0	0	0	503	512	
6	0	0	0	0	506	509	
7	0	0	0	0	508	509	
8	0	0	0	0	509	511	
9	0	0	0	0	504	510	
10	0	0	0	0	497	508	
11	0	0	0	0	497	510	
12	0	0	0	0	500	510	
13	0	0	0	0	513	509	
14	0	0	0	0	523	511	
15	0	0	0	0	524	508	
0	0	0	0	0	528	510	
1	0	0	0	0	517	510	
2	0	0	0	0	506	510	
3	0	0	0	0	508	511	
4	0	0	0	0	511	512	
5	0	0	0	0	515	509	
6	0	0	0	0	520	512	
7	0	0	0	0	517	512	
8	0	0	0	0	520	512	
9	0	0	0	0	517	514	
10	0	0	0	0	513	513	
11	0	0	0	0	509	514	
12	0	0	0	0	504	511	
13	0	0	0	0	505	512	
14	0	0	0	0	508	511	
15	0	0	0	0	505	511	
0	0	0	0	0	504	510	
1	0	0	0	0	502	510	
2	0	0	0	0	504	510	
3	0	0	0	0	506	512	
4	0	0	0	0	501	508	
5	0	0	0	0	502	511	
6	0	0	0	0	497	510	
7	0	0	0	0	497	509	
8	0	0	0	0	489	510	
9	0	0	0	0	496	508	
10	0	0	0	0	511	511	
11	0	0	0	0	531	511	
12	0	0	0	0	538	510	
13	0	0	0	0	543	510	
14	0	0	0	0	539	510	
15	0	0	0	0	526	509	
0	0	0	0	0	510	511	
1	0	0	0	0	502	511	
2	0	0	0	0	500	512	
3	0	0	0	0	508	511	
4	0	0	0	0	514	512	
5	0	0	0	0	516	510	
6	0	0	0	0	513	510	
7	0	0	0	0	511	514	
8	0	0	0	0	507	512	
9	0	0	0	0	498	515	
10	0	0	0	0	496	510	
11	0	0	0	0	488	508	
12	0	0	0	0	487	511	
13	0	0	0	0	490	510	
14	0	0	0	0	482	512	
15	0	0	0	0	481	512	
0	0	0	0	0	501	512	
1	0	0	0	0	527	514	
2	0	0	0	0	546	511	
3	0	0	0	0	555	510	
4	0	0	0	0	554	511	
5	0	0	0	0	547	508	
6	0	0	0	0	545	511	
7	0	0	0	0	519	509	
8	0	0	0	0	514	510	
9	0	0	0	0	512	512	
10	0	0	0	0	517	508	
11	0	0	0	0	518	512	
12	0	0	0	0	505	511	
13	0	0	0	0	502	511	
14	0	0	0	0	499	511	
15	0	0	0	0	498	510	
0	0	0	0	0	497	511	
1	0	0	0	0	497	508	
2	0	0	0	0	495	511	
3	0	0	0	0	488	511	
4	0	0	0	0	472	509	
5	0	0	0	0	482	510	
6	0	0	0	0	490	512	
7	0	0	0	0	498	511	
8	0	0	0	0	515	509	
9	0	0	0	0	531	511	
10	0	0	0	0	544	512	
11	0	0	0	0	546	512	
12	0	0	0	0	543	511	
13	0	0	0	0	535	511	
14	0	0	0	0	525	513	
15	0	0	0	0	518	511	
0	0	0	0	0	513	511	
1	0	0	0	0	504	510	
2	0	0	0	0	502	512	
3	0	0	0	0	499	509	
4	0	0	0	0	500	511	
5	0	0	0	0	503	512	
6	0	0	0	0	502	510	
7	0	0	0	0	503	511	
8	0	0	0	0	505	510	
9	0	0	0	0	503	511	
10	0	0	0	0	504	511	
11	0	0	0	0	502	511	
12	0	0	0	0	505	511	
13	0	0	0	0	504	509	
14	0	0	0	0	504	511	
15	0	0	0	0	498	506	
0	0	0	0	0	500	510	
1	0	0	0	0	515	511	
2	0	0	0	0	526	511	
3	0	0	0	0	523	510	
4	0	0	0	0	516	507	
5	0	0	0	0	519	510	
6	0	0	0	0	519	510	
7	0	0	0	0	515	511	
8	0	0	0	0	514	513	
9	0	0	0	0	507	510	
10	0	0	0	0	513	511	
11	0	0	0	0	517	511	
12	0	0	0	0	516	513	
13	0	0	0	0	513	513	
14	0	0	0	0	504	511	
15	0	0	0	0	488	510	
0	0	0	0	0	480	510	
1	0	0	0	0	482	510	
2	0	0	0	0	494	508	
3	0	0	0	0	507	509	
4	0	0	0	0	516	511	
5	0	0	0	0	517	509	
6	0	0	0	0	527	510	
7	0	0	0	0	534	513	
8	0	0	0	0	528	509	
9	0	0	0	0	531	513	
10	0	0	0	0	528	513	
11	0	0	0	0	527	511	
12	0	0	0	0	527	511	
13	0	0	0	0	521	509	
14	0	0	0	0	513	510	
15	0	0	0	0	518	511	
0	0	0	0	0	512	507	
1	0	0	0	0	508	509	
2	0	0	0	0	502	508	
3	0	0	0	0	504	511	
4	0	0	0	0	499	510	
5	0	0	0	0	502	512	
6	0	0	0	0	504	509	
7	0	0	0	0	503	511	
8	0	0	0	0	503	510	
9	0	0	0	0	501	508	
10	0	0	0	0	496	511	
11	0	0	0	0	495	510	
12	0	0	0	0	499	512	
13	0	0	0	0	502	513	
14	0	0	0	0	502	512	
15	0	0	0	0	504	510	
0	0	0	0	0	503	510	
1	0	0	0	0	510	509	
2	0	0	0	0	526	513	
3	0	0	0	0	528	512	
4	0	0	0	0	532	511	
5	0	0	0	0	529	510	
6	0	0	0	0	532	513	
7	0	0	0	0	531	514	
8	0	0	0	0	528	512	
9	0	0	0	0	521	513	
10	0	0	0	0	508	512	
11	0	0	0	0	501	512	
12	0	0	0	0	506	511	
13	0	0	0	0	502	509	
14	0	0	0	0	501	509	
15	0	0	0	0	498	508	
0	0	0	0	0	499	509	
1	0	0	0	0	505	509	
2	0	0	0	0	507	511	
3	0	0	0	0	509	512	
4	0	0	0	0	511	512	
5	0	0	0	0	514	510	
6	0	0	0	0	504	510	
7	0	0	0	0	502	512	
8	0	0	0	0	507	511	
9	0	0	0	0	518	511	
10	0	0	0	0	519	510	
11	0	0	0	0	519	512	
12	0	0	0	0	513	511	
13	0	0	0	0	511	509	
14	0	0	0	0	511	510	
15	0	0	0	0	504	510	
0	0	0	0	0	504	511	
1	0	0	0	0	507	511	
2	0	0	0	0	513	512	
3	0	0	0	0	513	511	
4	0	0	0	0	509	512	
5	0	0	0	0	501	512	
6	0	0	0	0	497	513	
7	0	0	0	0	502	512	
8	0	0	0	0	505	508	
9	0	0	0	0	511	508	
10	0	0	0	0	514	510	
11	0	0	0	0	515	509	
12	0	0	0	0	522	509	
13	0	0	0	0	518	510	
14	0	0	0	0	511	510	
15	0	0	0	0	512	507	
0	0	0	0	0	512	508	
1	0	0	0	0	508	512	
2	0	0	0	0	505	512	
3	0	0	0	0	507	512	
4	0	0	0	0	512	509	
5	0	0	0	0	511	510	
6	0	0	0	0	499	513	
7	0	0	0	0	503	513	
8	0	0	0	0	504	509	
9	0	0	0	0	507	511	
10	0	0	0	0	512	511	
11	0	0	0	0	513	510	
12	0	0	0	0	511	508	
13	0	0	0	0	505	510	
14	0	0	0	0	499	514	
15	0	0	0	0	497	513	
0	0	0	0	0	508	512	
1	0	0	0	0	519	513	
2	0	0	0	0	526	511	
3	0	0	0	0	532	513	
4	0	0	0	0	530	513	
5	0	0	0	0	526	514	
6	0	0	0	0	518	512	
7	0	0	0	0	516	515	
8	0	0	0	0	513	513	
9	0	0	0	0	512	512	
10	0	0	0	0	511	513	
11	0	0	0	0	511	511	
12	0	0	0	0	507	513	
13	0	0	0	0	511	513	
14	0	0	0	0	511	510	
15	0	0	0	0	514	511	
0	0	0	0	0	512	510	
1	0	0	0	0	505	509	
2	0	0	0	0	505	511	
3	0	0	0	0	499	510	
4	0	0	0	0	499	513	
5	0	0	0	0	500	512	
6	0	0	0	0	505	511	
7	0	0	0	0	499	510	
8	0	0	0	0	490	510	
9	0	0	0	0	497	510	
10	0	0	0	0	504	508	
11	0	0	0	0	517	507	
12	0	0	0	0	527	506	
13	0	0	0	0	527	505	
14	0	0	0	0	525	507	
15	0	0	0	0	520	505	
0	0	0	0	0	514	504	
1	0	0	0	0	519	504	
2	0	0	0	0	513	506	
3	0	0	0	0	511	509	
4	0	0	0	0	515	508	
5	0	0	0	0	514	508	
6	0	0	0	0	508	508	
7	0	0	0	0	501	509	
8	0	0	0	0	499	508	
9	0	0	0	0	506	509	
10	0	0	0	0	505	506	
11	0	0	0	0	503	508	
12	0	0	0	0	506	510	
13	0	0	0	0	506	510	
14	0	0	0	0	505	512	
15	0	0	0	0	503	513	
0	0	0	0	0	510	513	
1	0	0	0	0	513	515	
2	0	0	0	0	516	516	
3	0	0	0	0	522	513	
4	0	0	0	0	521	515	
5	0	0	0	0	508	513	
6	0	0	0	0	497	512	
7	0	0	0	0	497	512	
8	0	0	0	0	508	514	
9	0	0	0	0	515	511	
10	0	0	0	0	525	513	
11	0	0	0	0	529	511	
12	0	0	0	0	527	511	
13	0	0	0	0	519	511	
14	0	0	0	0	505	512	
15	0	0	0	0	502	513	
0	0	0	0	0	502	510	
1	0	0	0	0	508	512	
2	0	0	0	0	501	511	
3	0	0	0	0	508	513	
4	0	0	0	0	511	513	
5	0	0	0	0	511	513	
6	0	0	0	0	512	514	
7	0	0	0	0	515	513	
8	0	0	0	0	510	508	
9	0	0	0	0	509	509	
10	0	0	0	0	504	510	
11	0	0	0	0	497	508	
12	0	0	0	0	499	512	
13	0	0	0	0	500	511	
14	0	0	0	0	502	510	
15	0	0	0	0	500	508	
0	0	0	0	0	499	511	
1	0	0	0	0	503	511	
2	0	0	0	0	506	510	
3	0	0	0	0	508	510	
4	0	0	0	0	513	511	
5	0	0	0	0	513	508	
6	0	0	0	0	507	512	
7	0	0	0	0	511	507	
8	0	0	0	0	519	509	
9	0	0	0	0	527	510	
10	0	0	0	0	538	509	
11	0	0	0	0	546	510	
12	0	0	0	0	547	510	
13	0	0	0	0	532	509	
14	0	0	0	0	523	510	
15	0	0	0	0	519	510	
0	0	0	0	0	515	510	
1	0	0	0	0	511	512	
2	0	0	0	0	511	513	
3	0	0	0	0	512	513	
4	0	0	0	0	509	513	
5	0	0	0	0	504	513	
6	0	0	0	0	495	510	
7	0	0	0	0	492	509	
8	0	0	0	0	492	513	
9	0	0	0	0	495	510	
10	0	0	0	0	498	512	
11	0	0	0	0	503	512	
12	0	0	0	0	509	513	
13	0	0	0	0	510	510	
14	0	0	0	0	504	509	
15	0	0	0	0	504	510	
0	0	0	0	0	510	509	
1	0	0	0	0	515	510	
2	0	0	0	0	523	511	
3	0	0	0	0	526	510	
4	0	0	0	0	528	511	
5	0	0	0	0	521	509	
6	0	0	0	0	513	511	
7	0	0	0	0	509	511	
8	0	0	0	0	500	511	
9	0	0	0	0	495	513	
10	0	0	0	0	503	511	
11	0	0	0	0	507	510	
12	0	0	0	0	515	511	
13	0	0	0	0	520	510	
14	0	0	0	0	520	508	
15	0	0	0	0	516	510	
0	0	0	0	0	512	511	
1	0	0	0	0	509	510	
2	0	0	0	0	506	508	
3	0	0	0	0	513	510	
4	0	0	0	0	512	510	
5	0	0	0	0	512	510	
6	0	0	0	0	508	512	
7	0	0	0	0	499	511	
8	0	0	0	0	489	508	
9	0	0	0	0	488	510	
10	0	0	0	0	489	510	
11	0	0	0	0	507	512	
12	0	0	0	0	523	510	
13	0	0	0	0	534	509	
14	0	0	0	0	534	509	
15	0	0	0	0	533	512	
0	0	0	0	0	524	513	
1	0	0	0	0	520	512	
2	0	0	0	0	515	511	
3	0	0	0	0	510	512	
4	0	0	0	0	510	510	
5	0	0	0	0	510	512	
6	0	0	0	0	512	508	
7	0	0	0	0	510	509	
8	0	0	0	0	503	508	
9	0	0	0	0	503	512	
10	0	0	0	0	505	508	
11	0	0	0	0	511	511	
12	0	0	0	0	510	510	
13	0	0	0	0	510	509	
14	0	0	0	0	510	511	
15	0	0	0	0	514	511	
0	0	0	0	0	514	512	
1	0	0	0	0	512	511	
2	0	0	0	0	515	513	
3	0	0	0	0	511	511	
4	0	0	0	0	505	512	
5	0	0	0	0	499	513	
6	0	0	0	0	491	512	
7	0	0	0	0	492	514	
8	0	0	0	0	494	511	
9	0	0	0	0	506	511	
10	0	0	0	0	516	509	
11	0	0	0	0	521	512	
12	0	0	0	0	525	511	
13	0	0	0	0	524	511	
14	0	0	0	0	523	510	
15	0	0	0	0	525	512	
0	0	0	0	0	525	511	
1	0	0	0	0	524	510	
2	0	0	0	0	517	510	
3	0	0	0	0	509	509	
4	0	0	0	0	500	511	
5	0	0	0	0	498	510	
6	0	0	0	0	500	509	
7	0	0	0	0	498	510	
8	0	0	0	0	491	510	
9	0	0	0	0	502	511	
10	0	0	0	0	512	511	
11	0	0	0	0	515	510	
12	0	0	0	0	515	509	
13	0	0	0	0	518	508	
14	0	0	0	0	516	510	
15	0	0	0	0	511	511	
0	0	0	0	0	511	513	
1	0	0	0	0	514	511	
2	0	0	0	0	516	512	
3	0	0	0	0	516	513	
4	0	0	0	0	520	514	
5	0	0	0	0	519	510	
6	0	0	0	0	519	511	
7	0	0	0	0	518	512	
8	0	0	0	0	512	511	
9	0	0	0	0	510	510	
10	0	0	0	0	510	508	
11	0	0	0	0	512	509	
12	0	0	0	0	506	508	
13	0	0	0	0	503	509	
14	0	0	0	0	504	509	
15	0	0	0	0	507	510	
0	0	0	0	0	510	510	
1	0	0	0	0	509	510	
2	0	0	0	0	505	508	
3	0	0	0	0	503	511	
4	0	0	0	0	501	508	
5	0	0	0	0	505	509	
6	0	0	0	0	502	511	
7	0	0	0	0	502	513	
8	0	0	0	0	504	510	
9	0	0	0	0	507	513	
10	0	0	0	0	508	509	
11	0	0	0	0	516	510	
12	0	0	0	0	514	511	
13	0	0	0	0	509	511	
14	0	0	0	0	506	510	
15	0	0	0	0	512	510	
0	0	0	0	0	511	512	
1	0	0	0	0	512	508	
2	0	0	0	0	518	511	
3	0	0	0	0	522	509	
4	0	0	0	0	521	509	
5	0	0	0	0	519	510	
6	0	0	0	0	519	513	
7	0	0	0	0	515	510	
8	0	0	0	0	513	511	
9	0	0	0	0	512	511	
10	0	0	0	0	515	510	
11	0	0	0	0	510	511	
12	0	0	0	0	507	509	
13	0	0	0	0	507	508	
14	0	0	0	0	503	510	
15	0	0	0	0	498	508	
0	0	0	0	0	501	510	
1	0	0	0	0	505	511	
2	0	0	0	0	508	509	
3	0	0	0	0	513	511	
4	0	0	0	0	516	511	
5	0	0	0	0	519	512	
6	0	0	0	0	514	511	
7	0	0	0	0	512	508	
8	0	0	0	0	510	510	
9	0	0	0	0	508	510	
10	0	0	0	0	506	511	
11	0	0	0	0	510	511	
12	0	0	0	0	502	512	
13	0	0	0	0	497	512	
14	0	0	0	0	497	511	
15	0	0	0	0	505	512	
0	0	0	0	0	510	511	
1	0	0	0	0	516	510	
2	0	0	0	0	517	509	
3	0	0	0	0	519	511	
4	0	0	0	0	524	512	
5	0	0	0	0	524	511	
6	0	0	0	0	524	509	
7	0	0	0	0	520	511	
8	0	0	0	0	513	511	
9	0	0	0	0	507	510	
10	0	0	0	0	505	509	
11	0	0	0	0	508	511	
12	0	0	0	0	513	512	
13	0	0	0	0	513	511	
14	0	0	0	0	509	512	
15	0	0	0	0	508	509	
0	0	0	0	0	504	511	
1	0	0	0	0	505	508	
2	0	0	0	0	507	511	
3	0	0	0	0	513	511	
4	0	0	0	0	512	510	
5	0	0	0	0	512	509	
6	0	0	0	0	510	510	
7	0	0	0	0	505	510	
8	0	0	0	0	500	512	
9	0	0	0	0	492	511	
10	0	0	0	0	490	511	
11	0	0	0	0	494	509	
12	0	0	0	0	512	512	
13	0	0	0	0	532	511	
14	0	0	0	0	536	511	
15	0	0	0	0	532	511	
0	0	0	0	0	527	510	
1	0	0	0	0	523	511	
2	0	0	0	0	516	508	
3	0	0	0	0	510	512	
4	0	0	0	0	503	512	
5	0	0	0	0	504	511	
6	0	0	0	0	500	511	
7	0	0	0	0	497	509	
8	0	0	0	0	494	509	
9	0	0	0	0	502	512	
10	0	0	0	0	505	510	
11	0	0	0	0	505	510	
12	0	0	0	0	505	508	
13	0	0	0	0	511	510	
14	0	0	0	0	517	511	
15	0	0	0	0	513	512	
0	0	0	0	0	519	512	
1	0	0	0	0	526	511	
2	0	0	0	0	524	510	
3	0	0	0	0	523	508	
4	0	0	0	0	517	513	
5	0	0	0	0	513	512	
6	0	0	0	0	513	513	
7	0	0	0	0	510	511	
8	0	0	0	0	508	512	
9	0	0	0	0	507	512	
10	0	0	0	0	506	511	
11	0	0	0	0	505	511	
12	0	0	0	0	505	511	
13	0	0	0	0	503	509	
14	0	0	0	0	504	509	
15	0	0	0	0	505	509	
0	0	0	0	0	508	510	
1	0	0	0	0	508	510	
2	0	0	0	0	512	511	
3	0	0	0	0	515	509	
4	0	0	0	0	516	512	
5	0	0	0	0	515	510	
6	0	0	0	0	516	513	
7	0	0	0	0	503	512	
8	0	0	0	0	500	510	
9	0	0	0	0	504	510	
10	0	0	0	0	504	509	
11	0	0	0	0	512	510	
12	0	0	0	0	515	510	
13	0	0	0	0	516	511	
14	0	0	0	0	511	511	
15	0	0	0	0	508	510	
0	0	0	0	0	511	511	
1	0	0	0	0	512	511	
2	0	0	0	0	504	510	
3	0	0	0	0	502	509	
4	0	0	0	0	503	510	
5	0	0	0	0	512	512	
6	0	0	0	0	513	511	
7	0	0	0	0	519	512	
8	0	0	0	0	519	511	
9	0	0	0	0	519	510	
10	0	0	0	0	519	510	
11	0	0	0	0	519	511	
12	0	0	0	0	515	510	
13	0	0	0	0	511	510	
14	0	0	0	0	511	511	
15	0	0	0	0	511	511	
0	0	0	0	0	506	509	
1	0	0	0	0	503	511	
2	0	0	0	0	504	509	
3	0	0	0	0	511	511	
4	0	0	0	0	513	511	
5	0	0	0	0	512	509	
6	0	0	0	0	512	510	
7	0	0	0	0	516	510	
8	0	0	0	0	519	511	
9	0	0	0	0	515	509	
10	0	0	0	0	507	508	
11	0	0	0	0	507	511	
12	0	0	0	0	509	511	
13	0	0	0	0	508	511	
14	0	0	0	0	511	511	
15	0	0	0	0	510	508	
0	0	0	0	0	510	512	
1	0	0	0	0	493	512	
2	0	0	0	0	500	510	
3	0	0	0	0	506	508	
4	0	0	0	0	502	509	
5	0	0	0	0	507	512	
6	0	0	0	0	515	510	
7	0	0	0	0	517	511	
8	0	0	0	0	526	515	
9	0	0	0	0	527	508	
10	0	0	0	0	523	510	
11	0	0	0	0	518	512	
12	0	0	0	0	519	513	
13	0	0	0	0	520	514	
14	0	0	0	0	517	513	
15	0	0	0	0	512	513	
0	0	0	0	0	507	512	
1	0	0	0	0	505	513	
2	0	0	0	0	504	509	
3	0	0	0	0	502	512	
4	0	0	0	0	500	511	
5	0	0	0	0	501	511	
6	0	0	0	0	505	508	
7	0	0	0	0	506	511	
8	0	0	0	0	493	508	
9	0	0	0	0	495	506	
10	0	0	0	0	502	507	
11	0	0	0	0	504	508	
12	0	0	0	0	511	511	
13	0	0	0	0	513	510	
14	0	0	0	0	519	512	
15	0	0	0	0	519	511	
0	0	0	0	0	515	511	
1	0	0	0	0	516	511	
2	0	0	0	0	512	513	
3	0	0	0	0	512	510	
4	0	0	0	0	508	511	
5	0	0	0	0	512	511	
6	0	0	0	0	512	512	
7	0	0	0	0	503	510	
8	0	0	0	0	509	510	
9	0	0	0	0	512	509	
10	0	0	0	0	517	511	
11	0	0	0	0	515	510	
12	0	0	0	0	512	510	
13	0	0	0	0	517	510	
14	0	0	0	0	519	510	
15	0	0	0	0	521	510	
0	0	0	0	0	522	512	
1	0	0	0	0	516	511	
2	0	0	0	0	518	513	
3	0	0	0	0	514	511	
4	0	0	0	0	506	514	
5	0	0	0	0	504	512	
6	0	0	0	0	508	512	
7	0	0	0	0	505	510	
8	0	0	0	0	508	510	
9	0	0	0	0	508	511	
10	0	0	0	0	502	512	
11	0	0	0	0	497	511	
12	0	0	0	0	489	511	
13	0	0	0	0	482	509	
14	0	0	0	0	488	509	
15	0	0	0	0	505	508	
0	0	0	0	0	524	509	
1	0	0	0	0	529	510	
2	0	0	0	0	540	510	
3	0	0	0	0	538	509	
4	0	0	0	0	535	509	
5	0	0	0	0	519	510	
6	0	0	0	0	507	511	
7	0	0	0	0	503	511	
8	0	0	0	0	504	510	
9	0	0	0	0	511	513	
10	0	0	0	0	508	509	
11	0	0	0	0	511	511	
12	0	0	0	0	511	510	
13	0	0	0	0	508	512	
14	0	0	0	0	502	510	
15	0	0	0	0	496	508	
0	0	0	0	0	502	510	
1	0	0	0	0	504	511	
2	0	0	0	0	505	510	
3	0	0	0	0	506	513	
4	0	0	0	0	512	511	
5	0	0	0	0	513	511	
6	0	0	0	0	518	510	
7	0	0	0	0	517	508	
8	0	0	0	0	515	509	
9	0	0	0	0	513	510	
10	0	0	0	0	516	511	
11	0	0	0	0	512	510	
12	0	0	0	0	511	512	
13	0	0	0	0	512	512	
14	0	0	0	0	512	511	
15	0	0	0	0	511	511	
0	0	0	0	0	508	511	
1	0	0	0	0	508	510	
2	0	0	0	0	512	511	
3	0	0	0	0	511	510	
4	0	0	0	0	513	508	
5	0	0	0	0	510	509	
6	0	0	0	0	509	510	
7	0	0	0	0	508	512	
8	0	0	0	0	502	510	
9	0	0	0	0	506	510	
10	0	0	0	0	503	512	
11	0	0	0	0	508	511	
12	0	0	0	0	513	510	
13	0	0	0	0	516	511	
14	0	0	0	0	519	513	
15	0	0	0	0	518	510	
0	0	0	0	0	516	513	
1	0	0	0	0	513	513	
2	0	0	0	0	508	512	
3	0	0	0	0	507	512	
4	0	0	0	0	508	510	
5	0	0	0	0	509	510	
6	0	0	0	0	514	513	
7	0	0	0	0	509	508	
8	0	0	0	0	512	512	
9	0	0	0	0	513	509	
10	0	0	0	0	511	508	
11	0	0	0	0	511	511	
12	0	0	0	0	511	508	
13	0	0	0	0	508	512	
14	0	0	0	0	505	511	
15	0	0	0	0	504	510	
0	0	0	0	0	508	508	
1	0	0	0	0	508	511	
2	0	0	0	0	510	511	
3	0	0	0	0	512	511	
4	0	0	0	0	511	511	
5	0	0	0	0	512	510	
6	0	0	0	0	513	509	
7	0	0	0	0	513	511	
8	0	0	0	0	508	511	
9	0	0	0	0	509	507	
10	0	0	0	0	512	510	
11	0	0	0	0	509	509	
12	0	0	0	0	508	511	
13	0	0	0	0	512	512	
14	0	0	0	0	513	511	
15	0	0	0	0	515	512	
0	0	0	0	0	514	509	
1	0	0	0	0	514	511	
2	0	0	0	0	518	510	
3	0	0	0	0	519	510	
4	0	0	0	0	515	511	
5	0	0	0	0	511	511	
6	0	0	0	0	514	512	
7	0	0	0	0	512	511	
8	0	0	0	0	509	510	
9	0	0	0	0	508	511	
10	0	0	0	0	505	510	
11	0	0	0	0	499	512	
12	0	0	0	0	496	511	
13	0	0	0	0	499	511	
14	0	0	0	0	508	509	
15	0	0	0	0	506	511	
0	0	0	0	0	507	509	
1	0	0	0	0	504	510	
2	0	0	0	0	501	510	
3	0	0	0	0	505	511	
4	0	0	0	0	508	509	
5	0	0	0	0	510	511	
6	0	0	0	0	513	510	
7	0	0	0	0	519	508	
8	0	0	0	0	511	510	
9	0	0	0	0	511	512	
10	0	0	0	0	518	511	
11	0	0	0	0	521	511	
12	0	0	0	0	524	510	
13	0	0	0	0	524	512	
14	0	0	0	0	516	511	
15	0	0	0	0	512	511	
0	0	0	0	0	512	513	
1	0	0	0	0	514	511	
2	0	0	0	0	518	511	
3	0	0	0	0	526	511	
4	0	0	0	0	526	513	
5	0	0	0	0	519	510	
6	0	0	0	0	505	510	
7	0	0	0	0	502	509	
8	0	0	0	0	497	509	
9	0	0	0	0	502	511	
10	0	0	0	0	506	511	
11	0	0	0	0	510	508	
12	0	0	0	0	512	509	
13	0	0	0	0	504	509	
14	0	0	0	0	509	511	
15	0	0	0	0	509	511	
0	0	0	0	0	499	511	
1	0	0	0	0	492	512	
2	0	0	0	0	490	511	
3	0	0	0	0	496	511	
4	0	0	0	0	500	510	
5	0	0	0	0	512	512	
6	0	0	0	0	517	509	
7	0	0	0	0	523	509	
8	0	0	0	0	518	512	
9	0	0	0	0	520	511	
10	0	0	0	0	514	511	
11	0	0	0	0	507	508	
12	0	0	0	0	517	513	
13	0	0	0	0	512	511	
14	0	0	0	0	515	511	
15	0	0	0	0	521	510	
0	0	0	0	0	513	511	
1	0	0	0	0	509	508	
2	0	0	0	0	511	511	
3	0	0	0	0	511	509	
4	0	0	0	0	514	510	
5	0	0	0	0	512	510	
6	0	0	0	0	510	509	
7	0	0	0	0	509	510	
8	0	0	0	0	506	510	
9	0	0	0	0	502	512	
10	0	0	0	0	508	510	
11	0	0	0	0	508	509	
12	0	0	0	0	498	511	
13	0	0	0	0	498	510	
14	0	0	0	0	504	508	
15	0	0	0	0	510	508	
0	0	0	0	0	512	507	
1	0	0	0	0	520	509	
2	0	0	0	0	523	512	
3	0	0	0	0	524	513	
4	0	0	0	0	525	511	
5	0	0	0	0	520	509	
6	0	0	0	0	521	512	
7	0	0	0	0	512	513	
8	0	0	0	0	515	512	
9	0	0	0	0	514	513	
10	0	0	0	0	512	512	
11	0	0	0	0	504	510	
12	0	0	0	0	502	509	
13	0	0	0	0	503	511	
14	0	0	0	0	506	510	
15	0	0	0	0	504	509	
0	0	0	0	0	510	512	
1	0	0	0	0	511	512	
2	0	0	0	0	508	512	
3	0	0	0	0	505	511	
4	0	0	0	0	507	509	
5	0	0	0	0	507	512	
6	0	0	0	0	502	510	
7	0	0	0	0	503	511	
8	0	0	0	0	506	510	
9	0	0	0	0	512	511	
10	0	0	0	0	514	508	
11	0	0	0	0	518	512	
12	0	0	0	0	519	511	
13	0	0	0	0	517	513	
14	0	0	0	0	519	511	
15	0	0	0	0	516	511	
0	0	0	0	0	516	511	
1	0	0	0	0	516	510	
2	0	0	0	0	511	510	
3	0	0	0	0	509	510	
4	0	0	0	0	509	510	
5	0	0	0	0	506	511	
6	0	0	0	0	507	510	
7	0	0	0	0	507	509	
8	0	0	0	0	504	507	
9	0	0	0	0	510	511	
10	0	0	0	0	515	510	
11	0	0	0	0	510	510	
12	0	0	0	0	491	511	
13	0	0	0	0	479	510	
14	0	0	0	0	490	510	
15	0	0	0	0	503	508	
0	0	0	0	0	523	511	
1	0	0	0	0	536	509	
2	0	0	0	0	538	511	
3	0	0	0	0	539	510	
4	0	0	0	0	523	510	
5	0	0	0	0	515	511	
6	0	0	0	0	512	511	
7	0	0	0	0	511	510	
8	0	0	0	0	517	511	
9	0	0	0	0	519	511	
10	0	0	0	0	520	510	
11	0	0	0	0	515	510	
12	0	0	0	0	507	508	
13	0	0	0	0	505	512	
14	0	0	0	0	503	511	
15	0	0	0	0	501	511	
0	0	0	0	0	497	515	
1	0	0	0	0	498	512	
2	0	0	0	0	500	512	
3	0	0	0	0	500	511	
4	0	0	0	0	502	511	
5	0	0	0	0	506	511	
6	0	0	0	0	512	511	
7	0	0	0	0	517	510	
8	0	0	0	0	514	512	
9	0	0	0	0	513	512	
10	0	0	0	0	513	512	
11	0	0	0	0	518	513	
12	0	0	0	0	515	510	
13	0	0	0	0	517	512	
14	0	0	0	0	520	514	
15	0	0	0	0	519	513	
0	0	0	0	0	515	512	
1	0	0	0	0	513	510	
2	0	0	0	0	514	512	
3	0	0	0	0	516	512	
4	0	0	0	0	518	514	
5	0	0	0	0	512	512	
6	0	0	0	0	509	512	
7	0	0	0	0	506	510	
8	0	0	0	0	504	510	
9	0	0	0	0	508	511	
10	0	0	0	0	508	508	
11	0	0	0	0	512	511	
12	0	0	0	0	511	511	
13	0	0	0	0	509	510	
14	0	0	0	0	508	511	
15	0	0	0	0	507	513	
0	0	0	0	0	511	511	
1	0	0	0	0	510	510	
2	0	0	0	0	508	507	
3	0	0	0	0	508	509	
4	0	0	0	0	503	506	
5	0	0	0	0	507	504	
6	0	0	0	0	505	505	
7	0	0	0	0	502	507	
8	0	0	0	0	501	504	
9	0	0	0	0	511	507	
10	0	0	0	0	513	506	
11	0	0	0	0	518	508	
12	0	0	0	0	518	508	
13	0	0	0	0	510	508	
14	0	0	0	0	505	509	
15	0	0	0	0	498	509	
0	0	0	0	0	494	508	
1	0	0	0	0	501	510	
2	0	0	0	0	502	510	
3	0	0	0	0	501	510	
4	0	0	0	0	510	511	
5	0	0	0	0	514	510	
6	0	0	0	0	519	509	
7	0	0	0	0	514	511	
8	0	0	0	0	515	513	
9	0	0	0	0	512	512	
10	0	0	0	0	507	512	
11	0	0	0	0	503	513	
12	0	0	0	0	494	513	
13	0	0	0	0	496	512	
14	0	0	0	0	504	514	
15	0	0	0	0	513	512	
0	0	0	0	0	518	515	
1	0	0	0	0	520	514	
2	0	0	0	0	521	513	
3	0	0	0	0	525	515	
4	0	0	0	0	528	513	
5	0	0	0	0	535	516	
6	0	0	0	0	525	511	
7	0	0	0	0	519	513	
8	0	0	0	0	518	511	
9	0	0	0	0	505	512	
10	0	0	0	0	497	509	
11	0	0	0	0	505	510	
12	0	0	0	0	518	511	
13	0	0	0	0	518	511	
14	0	0	0	0	515	511	
15	0	0	0	0	513	510	
0	0	0	0	0	513	509	
1	0	0	0	0	515	508	
2	0	0	0	0	513	508	
3	0	0	0	0	506	508	
4	0	0	0	0	505	509	
5	0	0	0	0	505	511	
6	0	0	0	0	510	513	
7	0	0	0	0	511	512	
8	0	0	0	0	513	510	
9	0	0	0	0	515	508	
10	0	0	0	0	515	509	
11	0	0	0	0	509	508	
12	0	0	0	0	505	511	
13	0	0	0	0	509	510	
14	0	0	0	0	508	511	
15	0	0	0	0	507	513	
0	0	0	0	0	502	511	
1	0	0	0	0	496	512	
2	0	0	0	0	494	508	
3	0	0	0	0	500	510	
4	0	0	0	0	508	511	
5	0	0	0	0	509	510	
6	0	0	0	0	514	512	
7	0	0	0	0	513	512	
8	0	0	0	0	513	509	
9	0	0	0	0	512	510	
10	0	0	0	0	512	512	
11	0	0	0	0	506	511	
12	0	0	0	0	512	512	
13	0	0	0	0	519	512	
14	0	0	0	0	518	510	
15	0	0	0	0	515	511	
0	0	0	0	0	508	512	
1	0	0	0	0	507	512	
2	0	0	0	0	507	511	
3	0	0	0	0	510	511	
4	0	0	0	0	511	509	
5	0	0	0	0	512	509	
6	0	0	0	0	512	510	
7	0	0	0	0	515	511	
8	0	0	0	0	515	511	
9	0	0	0	0	515	512	
10	0	0	0	0	512	510	
11	0	0	0	0	512	509	
12	0	0	0	0	509	511	
13	0	0	0	0	504	512	
14	0	0	0	0	498	513	
15	0	0	0	0	501	512	
0	0	0	0	0	506	512	
1	0	0	0	0	512	508	
2	0	0	0	0	516	509	
3	0	0	0	0	513	510	
4	0	0	0	0	509	508	
5	0	0	0	0	503	511	
6	0	0	0	0	504	512	
7	0	0	0	0	502	512	
8	0	0	0	0	507	511	
9	0	0	0	0	514	511	
10	0	0	0	0	515	510	
11	0	0	0	0	519	511	
12	0	0	0	0	527	511	
13	0	0	0	0	530	511	
14	0	0	0	0	529	510	
15	0	0	0	0	523	511	
0	0	0	0	0	515	510	
1	0	0	0	0	509	512	
2	0	0	0	0	502	511	
3	0	0	0	0	499	510	
4	0	0	0	0	504	509	
5	0	0	0	0	507	511	
6	0	0	0	0	498	510	
7	0	0	0	0	500	511	
8	0	0	0	0	502	511	
9	0	0	0	0	502	511	
10	0	0	0	0	505	510	
11	0	0	0	0	515	511	
12	0	0	0	0	518	511	
13	0	0	0	0	513	511	
14	0	0	0	0	516	509	
15	0	0	0	0	506	511	
0	0	0	0	0	504	510	
1	0	0	0	0	507	509	
2	0	0	0	0	514	509	
3	0	0	0	0	518	510	
4	0	0	0	0	525	510	
5	0	0	0	0	525	510	
6	0	0	0	0	517	508	
7	0	0	0	0	519	509	
8	0	0	0	0	514	512	
9	0	0	0	0	508	513	
10	0	0	0	0	510	512	
11	0	0	0	0	507	508	
12	0	0	0	0	508	510	
13	0	0	0	0	505	510	
14	0	0	0	0	500	511	
15	0	0	0	0	501	513	
0	0	0	0	0	504	512	
1	0	0	0	0	505	510	
2	0	0	0	0	512	510	
3	0	0	0	0	514	510	
4	0	0	0	0	513	512	
5	0	0	0	0	510	508	
6	0	0	0	0	507	511	
7	0	0	0	0	504	509	
8	0	0	0	0	503	509	
9	0	0	0	0	504	513	
10	0	0	0	0	506	511	
11	0	0	0	0	511	510	
12	0	0	0	0	513	510	
13	0	0	0	0	518	511	
14	0	0	0	0	524	511	
15	0	0	0	0	518	509	
0	0	0	0	0	513	509	
1	0	0	0	0	511	510	
2	0	0	0	0	511	509	
3	0	0	0	0	513	510	
4	0	0	0	0	511	510	
5	0	0	0	0	513	509	
6	0	0	0	0	509	510	
7	0	0	0	0	512	511	
8	0	0	0	0	510	511	
9	0	0	0	0	511	512	
10	0	0	0	0	507	513	
11	0	0	0	0	504	511	
12	0	0	0	0	504	511	
13	0	0	0	0	504	509	
14	0	0	0	0	507	509	
15	0	0	0	0	504	508	
0	0	0	0	0	504	511	
1	0	0	0	0	513	512	
2	0	0	0	0	518	511	
3	0	0	0	0	516	510	
4	0	0	0	0	516	511	
5	0	0	0	0	517	510	
6	0	0	0	0	517	512	
7	0	0	0	0	512	509	
8	0	0	0	0	510	513	
9	0	0	0	0	504	510	
10	0	0	0	0	506	512	
11	0	0	0	0	512	511	
12	0	0	0	0	514	512	
13	0	0	0	0	511	513	
14	0	0	0	0	510	513	
15	0	0	0	0	513	512	
0	0	0	0	0	510	511	
1	0	0	0	0	510	511	
2	0	0	0	0	509	508	
3	0	0	0	0	517	508	
4	0	0	0	0	518	508	
5	0	0	0	0	519	508	
6	0	0	0	0	512	509	
7	0	0	0	0	510	510	
8	0	0	0	0	510	510	
9	0	0	0	0	500	507	
10	0	0	0	0	494	509	
11	0	0	0	0	496	511	
12	0	0	0	0	501	511	
13	0	0	0	0	505	510	
14	0	0	0	0	512	512	
15	0	0	0	0	526	510	
0	0	0	0	0	529	512	
1	0	0	0	0	524	511	
2	0	0	0	0	523	510	
3	0	0	0	0	520	510	
4	0	0	0	0	520	512	
5	0	0	0	0	513	510	
6	0	0	0	0	510	509	
7	0	0	0	0	505	511	
8	0	0	0	0	505	513	
9	0	0	0	0	502	511	
10	0	0	0	0	502	512	
11	0	0	0	0	502	510	
12	0	0	0	0	511	513	
13	0	0	0	0	511	510	
14	0	0	0	0	512	513	
15	0	0	0	0	510	513	
0	0	0	0	0	504	509	
1	0	0	0	0	500	508	
2	0	0	0	0	495	507	
3	0	0	0	0	496	511	
4	0	0	0	0	502	508	
5	0	0	0	0	508	508	
6	0	0	0	0	515	511	
7	0	0	0	0	519	508	
8	0	0	0	0	521	509	
9	0	0	0	0	523	511	
10	0	0	0	0	516	514	
11	0	0	0	0	505	508	
12	0	0	0	0	499	510	
13	0	0	0	0	499	512	
14	0	0	0	0	504	512	
15	0	0	0	0	506	511	
0	0	0	0	0	508	511	
1	0	0	0	0	512	511	
2	0	0	0	0	514	511	
3	0	0	0	0	514	510	
4	0	0	0	0	512	509	
5	0	0	0	0	516	509	
6	0	0	0	0	528	509	
7	0	0	0	0	531	511	
8	0	0	0	0	528	510	
9	0	0	0	0	526	511	
10	0	0	0	0	518	510	
11	0	0	0	0	512	509	
12	0	0	0	0	511	511	
13	0	0	0	0	506	511	
14	0	0	0	0	505	512	
15	0	0	0	0	501	511	
0	0	0	0	0	493	508	
1	0	0	0	0	497	512	
2	0	0	0	0	499	512	
3	0	0	0	0	500	511	
4	0	0	0	0	504	510	
5	0	0	0	0	503	512	
6	0	0	0	0	505	511	
7	0	0	0	0	511	510	
8	0	0	0	0	514	509	
9	0	0	0	0	523	511	
10	0	0	0	0	519	510	
11	0	0	0	0	518	511	
12	0	0	0	0	518	511	
13	0	0	0	0	519	511	
14	0	0	0	0	518	510	
15	0	0	0	0	513	511	
0	0	0	0	0	511	511	
1	0	0	0	0	512	510	
2	0	0	0	0	508	510	
3	0	0	0	0	503	510	
4	0	0	0	0	502	510	
5	0	0	0	0	506	510	
6	0	0	0	0	500	511	
7	0	0	0	0	507	511	
8	0	0	0	0	507	510	
9	0	0	0	0	510	510	
10	0	0	0	0	509	512	
11	0	0	0	0	501	512	
12	0	0	0	0	483	512	
13	0	0	0	0	475	512	
14	0	0	0	0	478	512	
15	0	0	0	0	495	512	
0	0	0	0	0	519	512	
1	0	0	0	0	533	512	
2	0	0	0	0	540	511	
3	0	0	0	0	545	510	
4	0	0	0	0	543	512	
5	0	0	0	0	537	512	
6	0	0	0	0	533	512	
7	0	0	0	0	529	512	
8	0	0	0	0	524	511	
9	0	0	0	0	519	508	
10	0	0	0	0	517	510	
11	0	0	0	0	506	509	
12	0	0	0	0	506	511	
13	0	0	0	0	502	513	
14	0	0	0	0	503	509	
15	0	0	0	0	503	510	
0	0	0	0	0	499	508	
1	0	0	0	0	499	510	
2	0	0	0	0	504	510	
3	0	0	0	0	505	511	
4	0	0	0	0	507	511	
5	0	0	0	0	504	508	
6	0	0	0	0	496	511	
7	0	0	0	0	487	510	
8	0	0	0	0	488	509	
9	0	0	0	0	507	511	
10	0	0	0	0	518	509	
11	0	0	0	0	534	510	
12	0	0	0	0	532	510	
13	0	0	0	0	526	510	
14	0	0	0	0	518	510	
15	0	0	0	0	505	511	
0	0	0	0	0	501	513	
1	0	0	0	0	509	513	
2	0	0	0	0	515	512	
3	0	0	0	0	515	510	
4	0	0	0	0	518	511	
5	0	0	0	0	515	513	
6	0	0	0	0	510	511	
7	0	0	0	0	510	512	
8	0	0	0	0	511	513	
9	0	0	0	0	508	509	
10	0	0	0	0	510	511	
11	0	0	0	0	510	511	
12	0	0	0	0	509	511	
13	0	0	0	0	507	510	
14	0	0	0	0	507	511	
15	0	0	0	0	511	511	
0	0	0	0	0	508	508	
1	0	0	0	0	505	511	
2	0	0	0	0	500	510	
3	0	0	0	0	499	510	
4	0	0	0	0	503	510	
5	0	0	0	0	513	510	
6	0	0	0	0	519	511	
7	0	0	0	0	528	514	
8	0	0	0	0	528	509	
9	0	0	0	0	521	511	
10	0	0	0	0	517	513	
11	0	0	0	0	508	512	
12	0	0	0	0	508	513	
13	0	0	0	0	506	510	
14	0	0	0	0	505	512	
15	0	0	0	0	493	511	
0	0	0	0	0	494	510	
1	0	0	0	0	498	509	
2	0	0	0	0	490	509	
3	0	0	0	0	482	510	
4	0	0	0	0	492	509	
5	0	0	0	0	500	509	
6	0	0	0	0	513	510	
7	0	0	0	0	527	507	
8	0	0	0	0	540	509	
9	0	0	0	0	550	510	
10	0	0	0	0	555	512	
11	0	0	0	0	546	508	
12	0	0	0	0	537	513	
13	0	0	0	0	531	514	
14	0	0	0	0	523	510	
15	0	0	0	0	515	511	
0	0	0	0	0	504	509	
1	0	0	0	0	502	507	
2	0	0	0	0	497	510	
3	0	0	0	0	493	510	
4	0	0	0	0	495	510	
5	0	0	0	0	497	514	
6	0	0	0	0	497	508	
7	0	0	0	0	505	510	
8	0	0	0	0	507	511	
9	0	0	0	0	510	511	
10	0	0	0	0	512	512	
11	0	0	0	0	507	511	
12	0	0	0	0	503	512	
13	0	0	0	0	498	510	
14	0	0	0	0	497	510	
15	0	0	0	0	496	510	
0	0	0	0	0	503	510	
1	0	0	0	0	508	511	
2	0	0	0	0	508	511	
3	0	0	0	0	507	510	
4	0	0	0	0	507	507	
5	0	0	0	0	518	509	
6	0	0	0	0	530	511	
7	0	0	0	0	531	511	
8	0	0	0	0	534	511	
9	0	0	0	0	522	510	
10	0	0	0	0	514	509	
11	0	0	0	0	507	511	
12	0	0	0	0	504	511	
13	0	0	0	0	504	510	
14	0	0	0	0	505	510	
15	0	0	0	0	505	512	
0	0	0	0	0	509	514	
1	0	0	0	0	512	512	
2	0	0	0	0	511	512	
3	0	0	0	0	508	511	
4	0	0	0	0	501	507	
5	0	0	0	0	504	512	
6	0	0	0	0	504	511	
7	0	0	0	0	509	511	
8	0	0	0	0	512	509	
9	0	0	0	0	516	511	
10	0	0	0	0	513	511	
11	0	0	0	0	512	511	
12	0	0	0	0	511	510	
13	0	0	0	0	505	510	
14	0	0	0	0	503	510	
15	0	0	0	0	505	508	
0	0	0	0	0	507	510	
1	0	0	0	0	510	510	
2	0	0	0	0	512	512	
3	0	0	0	0	517	509	
4	0	0	0	0	519	509	
5	0	0	0	0	519	510	
6	0	0	0	0	519	510	
7	0	0	0	0	513	511	
8	0	0	0	0	513	512	
9	0	0	0	0	511	511	
10	0	0	0	0	508	512	
11	0	0	0	0	509	512	
12	0	0	0	0	511	512	
13	0	0	0	0	493	511	
14	0	0	0	0	484	508	
15	0	0	0	0	478	508	
0	0	0	0	0	489	510	
1	0	0	0	0	504	511	
2	0	0	0	0	510	512	
3	0	0	0	0	527	509	
4	0	0	0	0	539	511	
5	0	0	0	0	535	511	
6	0	0	0	0	530	510	
7	0	0	0	0	524	513	
8	0	0	0	0	521	510	
9	0	0	0	0	523	512	
10	0	0	0	0	514	512	
11	0	0	0	0	504	515	
12	0	0	0	0	498	513	
13	0	0	0	0	508	511	
14	0	0	0	0	517	510	
15	0	0	0	0	526	509	
0	0	0	0	0	524	513	
1	0	0	0	0	520	510	
2	0	0	0	0	520	510	
3	0	0	0	0	516	510	
4	0	0	0	0	514	509	
5	0	0	0	0	510	511	
6	0	0	0	0	505	510	
7	0	0	0	0	505	507	
8	0	0	0	0	507	511	
9	0	0	0	0	506	508	
10	0	0	0	0	508	510	
11	0	0	0	0	503	509	
12	0	0	0	0	505	511	
13	0	0	0	0	504	512	
14	0	0	0	0	504	510	
15	0	0	0	0	499	511	
0	0	0	0	0	497	510	
1	0	0	0	0	499	513	
2	0	0	0	0	504	510	
3	0	0	0	0	511	510	
4	0	0	0	0	513	511	
5	0	0	0	0	512	511	
6	0	0	0	0	507	509	
7	0	0	0	0	505	512	
8	0	0	0	0	507	511	
9	0	0	0	0	506	510	
10	0	0	0	0	511	513	
11	0	0	0	0	520	509	
12	0	0	0	0	520	511	
13	0	0	0	0	513	510	
14	0	0	0	0	514	512	
15	0	0	0	0	515	512	
0	0	0	0	0	516	511	
1	0	0	0	0	514	511	
2	0	0	0	0	509	512	
3	0	0	0	0	513	510	
4	0	0	0	0	513	511	
5	0	0	0	0	508	511	
6	0	0	0	0	504	510	
7	0	0	0	0	499	511	
8	0	0	0	0	500	510	
9	0	0	0	0	499	510	
10	0	0	0	0	505	511	
11	0	0	0	0	504	512	
12	0	0	0	0	505	513	
13	0	0	0	0	512	513	
14	0	0	0	0	518	510	
15	0	0	0	0	524	511	
0	0	0	0	0	519	512	
1	0	0	0	0	524	510	
2	0	0	0	0	522	510	
3	0	0	0	0	513	509	
4	0	0	0	0	512	508	
5	0	0	0	0	508	510	
6	0	0	0	0	498	510	
7	0	0	0	0	494	512	
8	0	0	0	0	493	509	
9	0	0	0	0	494	510	
10	0	0	0	0	492	510	
11	0	0	0	0	505	509	
12	0	0	0	0	517	510	
13	0	0	0	0	520	510	
14	0	0	0	0	526	512	
15	0	0	0	0	532	510	
0	0	0	0	0	534	512	
1	0	0	0	0	530	511	
2	0	0	0	0	520	510	
3	0	0	0	0	509	510	
4	0	0	0	0	500	512	
5	0	0	0	0	495	511	
6	0	0	0	0	503	512	
7	0	0	0	0	515	509	
8	0	0	0	0	531	512	
9	0	0	0	0	529	511	
10	0	0	0	0	517	513	
11	0	0	0	0	515	513	
12	0	0	0	0	513	511	
13	0	0	0	0	513	511	
14	0	0	0	0	512	510	
15	0	0	0	0	515	509	
0	0	0	0	0	513	510	
1	0	0	0	0	509	509	
2	0	0	0	0	506	510	
3	0	0	0	0	501	510	
4	0	0	0	0	503	510	
5	0	0	0	0	505	510	
6	0	0	0	0	500	509	
7	0	0	0	0	503	511	
8	0	0	0	0	504	511	
9	0	0	0	0	503	510	
10	0	0	0	0	502	510	
11	0	0	0	0	501	508	
12	0	0	0	0	510	512	
13	0	0	0	0	508	512	
14	0	0	0	0	507	511	
15	0	0	0	0	509	512	
0	0	0	0	0	510	508	
1	0	0	0	0	518	512	
2	0	0	0	0	519	512	
3	0	0	0	0	513	512	
4	0	0	0	0	514	511	
5	0	0	0	0	514	512	
6	0	0	0	0	518	509	
7	0	0	0	0	511	511	
8	0	0	0	0	510	508	
9	0	0	0	0	510	510	
10	0	0	0	0	511	508	
11	0	0	0	0	507	510	
12	0	0	0	0	499	511	
13	0	0	0	0	501	510	
14	0	0	0	0	502	512	
15	0	0	0	0	504	512	
0	0	0	0	0	511	509	
1	0	0	0	0	515	509	
2	0	0	0	0	527	509	
3	0	0	0	0	524	511	
4	0	0	0	0	519	510	
5	0	0	0	0	521	510	
6	0	0	0	0	512	510	
7	0	0	0	0	505	512	
8	0	0	0	0	504	513	
9	0	0	0	0	503	511	
10	0	0	0	0	511	513	
11	0	0	0	0	516	511	
12	0	0	0	0	520	511	
13	0	0	0	0	520	511	
14	0	0	0	0	504	510	
15	0	0	0	0	488	512	
0	0	0	0	0	495	509	
1	0	0	0	0	508	510	
2	0	0	0	0	515	509	
3	0	0	0	0	521	512	
4	0	0	0	0	527	511	
5	0	0	0	0	527	512	
6	0	0	0	0	515	511	
7	0	0	0	0	510	511	
8	0	0	0	0	510	512	
9	0	0	0	0	507	510	
10	0	0	0	0	511	510	
11	0	0	0	0	515	510	
12	0	0	0	0	514	512	
13	0	0	0	0	513	511	
14	0	0	0	0	517	511	
15	0	0	0	0	509	508	
0	0	0	0	0	504	512	
1	0	0	0	0	500	512	
2	0	0	0	0	500	508	
3	0	0	0	0	503	511	
4	0	0	0	0	494	510	
5	0	0	0	0	498	510	
6	0	0	0	0	502	508	
7	0	0	0	0	501	509	
8	0	0	0	0	508	511	
9	0	0	0	0	516	511	
10	0	0	0	0	520	511	
11	0	0	0	0	524	512	
12	0	0	0	0	527	510	
13	0	0	0	0	528	513	
14	0	0	0	0	524	511	
15	0	0	0	0	518	510	
0	0	0	0	0	515	511	
1	0	0	0	0	510	509	
2	0	0	0	0	511	510	
3	0	0	0	0	513	510	
4	0	0	0	0	505	511	
5	0	0	0	0	509	513	
6	0	0	0	0	503	507	
7	0	0	0	0	504	510	
8	0	0	0	0	502	510	
9	0	0	0	0	494	510	
10	0	0	0	0	494	509	
11	0	0	0	0	499	510	
12	0	0	0	0	509	510	
13	0	0	0	0	512	510	
14	0	0	0	0	517	512	
15	0	0	0	0	519	510	
0	0	0	0	0	514	510	
1	0	0	0	0	511	511	
2	0	0	0	0	507	510	
3	0	0	0	0	507	509	
4	0	0	0	0	512	512	
5	0	0	0	0	513	523	
6	0	0	0	0	518	522	
7	0	0	0	0	520	521	
8	0	0	0	0	523	519	
9	0	0	0	0	519	514	
10	0	0	0	0	512	515	
11	0	0	0	0	508	512	
12	0	0	0	0	508	511	
13	0	0	0	0	512	510	
14	0	0	0	0	512	509	
15	0	0	0	0	512	509	
0	0	0	0	0	507	509	
1	0	0	0	0	504	510	
2	0	0	0	0	502	508	
3	0	0	0	0	502	510	
4	0	0	0	0	505	509	
5	0	0	0	0	504	509	
6	0	0	0	0	504	510	
7	0	0	0	0	508	513	
8	0	0	0	0	509	509	
9	0	0	0	0	506	511	
10	0	0	0	0	494	511	
11	0	0	0	0	499	511	
12	0	0	0	0	504	512	
13	0	0	0	0	516	511	
14	0	0	0	0	519	511	
15	0	0	0	0	523	508	
0	0	0	0	0	520	509	
1	0	0	0	0	517	510	
2	0	0	0	0	522	508	
3	0	0	0	0	521	510	
4	0	0	0	0	523	509	
5	0	0	0	0	521	506	
6	0	0	0	0	521	509	
7	0	0	0	0	515	509	
8	0	0	0	0	513	510	
9	0	0	0	0	514	512	
10	0	0	0	0	515	509	
11	0	0	0	0	514	508	
12	0	0	0	0	509	506	
13	0	0	0	0	505	505	
14	0	0	0	0	504	505	
15	0	0	0	0	504	507	
0	0	0	0	0	507	504	
1	0	0	0	0	511	506	
2	0	0	0	0	509	506	
3	0	0	0	0	512	508	
4	0	0	0	0	505	508	
5	0	0	0	0	508	507	
6	0	0	0	0	506	509	
7	0	0	0	0	498	508	
8	0	0	0	0	493	510	
9	0	0	0	0	491	509	
10	0	0	0	0	487	509	
11	0	0	0	0	494	508	
12	0	0	0	0	511	509	
13	0	0	0	0	524	513	
14	0	0	0	0	529	511	
15	0	0	0	0	528	512	
0	0	0	0	0	526	514	
1	0	0	0	0	518	513	
2	0	0	0	0	511	514	
3	0	0	0	0	507	514	
4	0	0	0	0	506	515	
5	0	0	0	0	515	516	
6	0	0	0	0	518	512	
7	0	0	0	0	517	513	
8	0	0	0	0	514	514	
9	0	0	0	0	512	513	
10	0	0	0	0	511	513	
11	0	0	0	0	507	512	
12	0	0	0	0	510	514	
13	0	0	0	0	510	510	
14	0	0	0	0	507	511	
15	0	0	0	0	504	512	
0	0	0	0	0	502	509	
1	0	0	0	0	508	510	
2	0	0	0	0	510	510	
3	0	0	0	0	512	510	
4	0	0	0	0	517	513	
5	0	0	0	0	517	511	
6	0	0	0	0	520	509	
7	0	0	0	0	516	509	
8	0	0	0	0	511	510	
9	0	0	0	0	510	509	
10	0	0	0	0	507	507	
11	0	0	0	0	505	512	
12	0	0	0	0	496	510	
13	0	0	0	0	491	512	
14	0	0	0	0	497	510	
15	0	0	0	0	500	509	
0	0	0	0	0	510	512	
1	0	0	0	0	517	512	
2	0	0	0	0	519	512	
3	0	0	0	0	524	512	
4	0	0	0	0	525	511	
5	0	0	0	0	522	511	
6	0	0	0	0	519	512	
7	0	0	0	0	521	510	
8	0	0	0	0	521	512	
9	0	0	0	0	519	510	
10	0	0	0	0	520	512	
11	0	0	0	0	518	511	
12	0	0	0	0	507	510	
13	0	0	0	0	499	511	
14	0	0	0	0	491	509	
15	0	0	0	0	492	510	
0	0	0	0	0	503	507	
1	0	0	0	0	510	507	
2	0	0	0	0	515	510	
3	0	0	0	0	517	509	
4	0	0	0	0	515	508	
5	0	0	0	0	513	511	
6	0	0	0	0	511	512	
7	0	0	0	0	512	512	
8	0	0	0	0	509	510	
9	0	0	0	0	512	513	
10	0	0	0	0	512	511	
11	0	0	0	0	507	512	
12	0	0	0	0	508	512	
13	0	0	0	0	506	511	
14	0	0	0	0	508	510	
15	0	0	0	0	506	512	
0	0	0	0	0	506	512	
1	0	0	0	0	504	511	
2	0	0	0	0	499	510	
3	0	0	0	0	501	507	
4	0	0	0	0	512	511	
5	0	0	0	0	514	511	
6	0	0	0	0	510	513	
7	0	0	0	0	502	511	
8	0	0	0	0	508	511	
9	0	0	0	0	515	511	
10	0	0	0	0	519	512	
11	0	0	0	0	521	509	
12	0	0	0	0	522	508	
13	0	0	0	0	523	511	
14	0	0	0	0	521	508	
15	0	0	0	0	519	512	
0	0	0	0	0	518	509	
1	0	0	0	0	510	510	
2	0	0	0	0	507	510	
3	0	0	0	0	507	511	
4	0	0	0	0	509	512	
5	0	0	0	0	507	512	
6	0	0	0	0	511	511	
7	0	0	0	0	511	510	
8	0	0	0	0	507	510	
9	0	0	0	0	508	511	
10	0	0	0	0	511	509	
11	0	0	0	0	515	508	
12	0	0	0	0	515	511	
13	0	0	0	0	513	511	
14	0	0	0	0	507	512	
15	0	0	0	0	495	512	
0	0	0	0	0	491	509	
1	0	0	0	0	504	511	
2	0	0	0	0	511	513	
3	0	0	0	0	511	512	
4	0	0	0	0	508	512	
5	0	0	0	0	506	510	
6	0	0	0	0	508	508	
7	0	0	0	0	517	510	
8	0	0	0	0	523	509	
9	0	0	0	0	523	511	
10	0	0	0	0	514	508	
11	0	0	0	0	516	511	
12	0	0	0	0	520	511	
13	0	0	0	0	518	509	
14	0	0	0	0	515	508	
15	0	0	0	0	518	510	
0	0	0	0	0	519	511	
1	0	0	0	0	513	511	
2	0	0	0	0	510	510	
3	0	0	0	0	506	511	
4	0	0	0	0	503	511	
5	0	0	0	0	504	511	
6	0	0	0	0	503	509	
7	0	0	0	0	502	511	
8	0	0	0	0	496	508	
9	0	0	0	0	501	511	
10	0	0	0	0	508	512	
11	0	0	0	0	499	510	
12	0	0	0	0	498	511	
13	0	0	0	0	503	511	
14	0	0	0	0	515	510	
15	0	0	0	0	530	513	
0	0	0	0	0	532	510	
1	0	0	0	0	528	512	
2	0	0	0	0	526	510	
3	0	0	0	0	524	510	
4	0	0	0	0	516	510	
5	0	0	0	0	511	511	
6	0	0	0	0	510	510	
7	0	0	0	0	509	510	
8	0	0	0	0	500	511	
9	0	0	0	0	503	512	
10	0	0	0	0	508	512	
11	0	0	0	0	510	509	
12	0	0	0	0	510	512	
13	0	0	0	0	508	510	
14	0	0	0	0	507	512	
15	0	0	0	0	507	510	
0	0	0	0	0	510	511	
1	0	0	0	0	508	510	
2	0	0	0	0	511	510	
3	0	0	0	0	510	510	
4	0	0	0	0	509	512	
5	0	0	0	0	510	512	
6	0	0	0	0	510	512	
7	0	0	0	0	504	511	
8	0	0	0	0	505	509	
9	0	0	0	0	509	508	
10	0	0	0	0	515	510	
11	0	0	0	0	512	511	
12	0	0	0	0	510	510	
13	0	0	0	0	513	511	
14	0	0	0	0	512	510	
15	0	0	0	0	506	510	
0	0	0	0	0	501	508	
1	0	0	0	0	502	508	
2	0	0	0	0	510	512	
3	0	0	0	0	511	509	
4	0	0	0	0	513	512	
5	0	0	0	0	514	510	
6	0	0	0	0	517	513	
7	0	0	0	0	519	510	
8	0	0	0	0	519	511	
9	0	0	0	0	516	512	
10	0	0	0	0	512	510	
11	0	0	0	0	510	510	
12	0	0	0	0	512	512	
13	0	0	0	0	509	512	
14	0	0	0	0	509	511	
15	0	0	0	0	505	512	
0	0	0	0	0	506	507	
1	0	0	0	0	502	511	
2	0	0	0	0	503	511	
3	0	0	0	0	511	511	
4	0	0	0	0	515	511	
5	0	0	0	0	517	511	
6	0	0	0	0	517	512	
7	0	0	0	0	519	511	
8	0	0	0	0	519	510	
9	0	0	0	0	502	509	
10	0	0	0	0	489	509	
11	0	0	0	0	494	510	
12	0	0	0	0	502	512	
13	0	0	0	0	510	512	
14	0	0	0	0	515	509	
15	0	0	0	0	520	507	
0	0	0	0	0	524	510	
1	0	0	0	0	521	511	
2	0	0	0	0	526	512	
3	0	0	0	0	516	512	
4	0	0	0	0	505	511	
5	0	0	0	0	500	511	
6	0	0	0	0	501	512	
7	0	0	0	0	507	511	
8	0	0	0	0	516	512	
9	0	0	0	0	514	508	
10	0	0	0	0	523	509	
11	0	0	0	0	521	509	
12	0	0	0	0	515	511	
13	0	0	0	0	514	510	
14	0	0	0	0	515	509	
15	0	0	0	0	515	512	
0	0	0	0	0	513	512	
1	0	0	0	0	516	510	
2	0	0	0	0	516	510	
3	0	0	0	0	504	511	
4	0	0	0	0	494	509	
5	0	0	0	0	495	512	
6	0	0	0	0	500	510	
7	0	0	0	0	508	512	
8	0	0	0	0	513	508	
9	0	0	0	0	513	511	
10	0	0	0	0	511	511	
11	0	0	0	0	510	509	
12	0	0	0	0	508	512	
13	0	0	0	0	506	510	
14	0	0	0	0	506	511	
15	0	0	0	0	505	515	
0	0	0	0	0	504	513	
1	0	0	0	0	505	510	
2	0	0	0	0	512	509	
3	0	0	0	0	516	509	
4	0	0	0	0	515	510	
5	0	0	0	0	514	510	
6	0	0	0	0	517	512	
7	0	0	0	0	510	511	
8	0	0	0	0	511	510	
9	0	0	0	0	511	509	
10	0	0	0	0	510	512	
11	0	0	0	0	512	512	
12	0	0	0	0	505	511	
13	0	0	0	0	505	511	
14	0	0	0	0	504	508	
15	0	0	0	0	508	510	
0	0	0	0	0	509	511	
1	0	0	0	0	509	512	
2	0	0	0	0	511	510	
3	0	0	0	0	505	510	
4	0	0	0	0	504	511	
5	0	0	0	0	509	512	
6	0	0	0	0	507	509	
7	0	0	0	0	505	511	
8	0	0	0	0	508	511	
9	0	0	0	0	515	512	
10	0	0	0	0	523	510	
11	0	0	0	0	521	508	
12	0	0	0	0	516	510	
13	0	0	0	0	515	509	
14	0	0	0	0	516	510	
15	0	0	0	0	522	510	
0	0	0	0	0	527	510	
1	0	0	0	0	527	509	
2	0	0	0	0	524	511	
3	0	0	0	0	516	512	
4	0	0	0	0	506	512	
5	0	0	0	0	493	510	
6	0	0	0	0	492	512	
7	0	0	0	0	501	510	
8	0	0	0	0	512	510	
9	0	0	0	0	519	511	
10	0	0	0	0	519	512	
11	0	0	0	0	514	511	
12	0	0	0	0	511	510	
13	0	0	0	0	504	511	
14	0	0	0	0	493	510	
15	0	0	0	0	489	509	
0	0	0	0	0	501	511	
1	0	0	0	0	511	511	
2	0	0	0	0	516	512	
3	0	0	0	0	527	511	
4	0	0	0	0	523	511	
5	0	0	0	0	521	513	
6	0	0	0	0	518	511	
7	0	0	0	0	519	511	
8	0	0	0	0	521	511	
9	0	0	0	0	522	513	
10	0	0	0	0	515	509	
11	0	0	0	0	503	511	
12	0	0	0	0	495	512	
13	0	0	0	0	495	510	
14	0	0	0	0	499	508	
15	0	0	0	0	500	511	
0	0	0	0	0	502	510	
1	0	0	0	0	507	510	
2	0	0	0	0	507	510	
3	0	0	0	0	507	510	
4	0	0	0	0	509	510	
5	0	0	0	0	511	510	
6	0	0	0	0	512	510	
7	0	0	0	0	509	510	
8	0	0	0	0	508	511	
9	0	0	0	0	504	510	
10	0	0	0	0	510	508	
11	0	0	0	0	512	511	
12	0	0	0	0	512	511	
13	0	0	0	0	516	513	
14	0	0	0	0	509	512	
15	0	0	0	0	506	514	
0	0	0	0	0	503	512	
1	0	0	0	0	512	512	
2	0	0	0	0	513	509	
3	0	0	0	0	516	510	
4	0	0	0	0	513	511	
5	0	0	0	0	518	512	
6	0	0	0	0	515	512	
7	0	0	0	0	514	513	
8	0	0	0	0	518	511	
9	0	0	0	0	512	510	
10	0	0	0	0	511	511	
11	0	0	0	0	511	509	
12	0	0	0	0	512	509	
13	0	0	0	0	511	512	
14	0	0	0	0	506	511	
15	0	0	0	0	510	510	
0	0	0	0	0	514	514	
1	0	0	0	0	517	512	
2	0	0	0	0	516	511	
3	0	0	0	0	518	510	
4	0	0	0	0	514	510	
5	0	0	0	0	512	512	
6	0	0	0	0	505	509	
7	0	0	0	0	509	510	
8	0	0	0	0	509	508	
9	0	0	0	0	507	510	
10	0	0	0	0	508	511	
11	0	0	0	0	502	512	
12	0	0	0	0	505	513	
13	0	0	0	0	506	509	
14	0	0	0	0	507	510	
15	0	0	0	0	498	508	
0	0	0	0	0	500	509	
1	0	0	0	0	494	511	
2	0	0	0	0	493	510	
3	0	0	0	0	508	510	
4	0	0	0	0	521	509	
5	0	0	0	0	515	508	
6	0	0	0	0	527	509	
7	0	0	0	0	526	510	
8	0	0	0	0	529	511	
9	0	0	0	0	528	512	
10	0	0	0	0	523	509	
11	0	0	0	0	519	512	
12	0	0	0	0	519	511	
13	0	0	0	0	520	513	
14	0	0	0	0	516	512	
15	0	0	0	0	514	511	
0	0	0	0	0	514	511	
1	0	0	0	0	511	509	
2	0	0	0	0	509	511	
3	0	0	0	0	504	510	
4	0	0	0	0	503	511	
5	0	0	0	0	506	509	
6	0	0	0	0	506	509	
7	0	0	0	0	509	512	
8	0	0	0	0	504	508	
9	0	0	0	0	503	512	
10	0	0	0	0	495	509	
11	0	0	0	0	500	510	
12	0	0	0	0	504	510	
13	0	0	0	0	510	510	
14	0	0	0	0	513	511	
15	0	0	0	0	512	510	
0	0	0	0	0	513	510	
1	0	0	0	0	515	509	
2	0	0	0	0	515	512	
3	0	0	0	0	509	509	
4	0	0	0	0	506	510	
5	0	0	0	0	506	512	
6	0	0	0	0	513	511	
7	0	0	0	0	507	511	
8	0	0	0	0	510	513	
9	0	0	0	0	502	511	
10	0	0	0	0	503	510	
11	0	0	0	0	507	511	
12	0	0	0	0	513	511	
13	0	0	0	0	520	511	
14	0	0	0	0	523	511	
15	0	0	0	0	520	511	
0	0	0	0	0	515	511	
1	0	0	0	0	513	513	
2	0	0	0	0	507	510	
3	0	0	0	0	512	510	
4	0	0	0	0	513	510	
5	0	0	0	0	511	511	
6	0	0	0	0	508	510	
7	0	0	0	0	507	507	
8	0	0	0	0	504	508	
9	0	0	0	0	504	510	
10	0	0	0	0	502	511	
11	0	0	0	0	511	513	
12	0	0	0	0	513	508	
13	0	0	0	0	516	512	
14	0	0	0	0	519	510	
15	0	0	0	0	520	511	
0	0	0	0	0	519	512	
1	0	0	0	0	510	511	
2	0	0	0	0	509	511	
3	0	0	0	0	513	513	
4	0	0	0	0	512	512	
5	0	0	0	0	509	511	
6	0	0	0	0	508	511	
7	0	0	0	0	509	511	
8	0	0	0	0	502	512	
9	0	0	0	0	496	511	
10	0	0	0	0	495	512	
11	0	0	0	0	496	509	
12	0	0	0	0	500	511	
13	0	0	0	0	504	510	
14	0	0	0	0	506	510	
15	0	0	0	0	511	510	
0	0	0	0	0	508	510	
1	0	0	0	0	511	509	
2	0	0	0	0	519	511	
3	0	0	0	0	521	512	
4	0	0	0	0	531	511	
5	0	0	0	0	529	510	
6	0	0	0	0	524	511	
7	0	0	0	0	517	510	
8	0	0	0	0	518	510	
9	0	0	0	0	517	511	
10	0	0	0	0	511	509	
11	0	0	0	0	513	511	
12	0	0	0	0	510	511	
13	0	0	0	0	504	510	
14	0	0	0	0	507	512	
15	0	0	0	0	506	511	
0	0	0	0	0	505	512	
1	0	0	0	0	511	512	
2	0	0	0	0	511	512	
3	0	0	0	0	507	511	
4	0	0	0	0	507	511	
5	0	0	0	0	512	512	
6	0	0	0	0	515	511	
7	0	0	0	0	515	510	
8	0	0	0	0	511	512	
9	0	0	0	0	502	507	
10	0	0	0	0	499	510	
11	0	0	0	0	500	512	
12	0	0	0	0	500	511	
13	0	0	0	0	496	511	
14	0	0	0	0	494	508	
15	0	0	0	0	504	510	
0	0	0	0	0	515	511	
1	0	0	0	0	523	512	
2	0	0	0	0	521	512	
3	0	0	0	0	519	510	
4	0	0	0	0	524	511	
5	0	0	0	0	524	510	
6	0	0	0	0	520	511	
7	0	0	0	0	519	511	
8	0	0	0	0	520	511	
9	0	0	0	0	516	512	
10	0	0	0	0	514	509	
11	0	0	0	0	513	511	
12	0	0	0	0	508	511	
13	0	0	0	0	507	509	
14	0	0	0	0	505	512	
15	0	0	0	0	502	512	
0	0	0	0	0	499	509	
1	0	0	0	0	503	508	
2	0	0	0	0	506	511	
3	0	0	0	0	513	512	
4	0	0	0	0	514	511	
5	0	0	0	0	515	511	
6	0	0	0	0	518	508	
7	0	0	0	0	519	512	
8	0	0	0	0	504	509	
9	0	0	0	0	496	512	
10	0	0	0	0	497	510	
11	0	0	0	0	504	509	
12	0	0	0	0	513	513	
13	0	0	0	0	512	510	
14	0	0	0	0	514	509	
15	0	0	0	0	511	510	
0	0	0	0	0	505	512	
1	0	0	0	0	509	508	
2	0	0	0	0	512	508	
3	0	0	0	0	515	511	
4	0	0	0	0	512	510	
5	0	0	0	0	512	509	
6	0	0	0	0	513	508	
7	0	0	0	0	513	512	
8	0	0	0	0	513	510	
9	0	0	0	0	510	511	
10	0	0	0	0	509	512	
11	0	0	0	0	510	513	
12	0	0	0	0	514	508	
13	0	0	0	0	518	512	
14	0	0	0	0	516	509	
15	0	0	0	0	510	511	
0	0	0	0	0	505	509	
1	0	0	0	0	511	510	
2	0	0	0	0	508	511	
3	0	0	0	0	509	510	
4	0	0	0	0	512	512	
5	0	0	0	0	512	510	
6	0	0	0	0	513	511	
7	0	0	0	0	515	512	
8	0	0	0	0	515	512	
9	0	0	0	0	518	513	
10	0	0	0	0	517	514	
11	0	0	0	0	507	510	
12	0	0	0	0	492	511	
13	0	0	0	0	493	512	
14	0	0	0	0	497	509	
15	0	0	0	0	505	511	
0	0	0	0	0	515	513	
1	0	0	0	0	523	513	
2	0	0	0	0	520	512	
3	0	0	0	0	516	512	
4	0	0	0	0	514	510	
5	0	0	0	0	511	510	
6	0	0	0	0	512	511	
7	0	0	0	0	515	512	
8	0	0	0	0	515	510	
9	0	0	0	0	517	512	
10	0	0	0	0	515	510	
11	0	0	0	0	506	509	
12	0	0	0	0	500	509	
13	0	0	0	0	504	511	
14	0	0	0	0	506	511	
15	0	0	0	0	514	510	
0	0	0	0	0	516	510	
1	0	0	0	0	512	511	
2	0	0	0	0	510	508	
3	0	0	0	0	516	510	
4	0	0	0	0	517	509	
5	0	0	0	0	515	510	
6	0	0	0	0	518	511	
7	0	0	0	0	519	511	
8	0	0	0	0	508	509	
9	0	0	0	0	505	512	
10	0	0	0	0	499	510	
11	0	0	0	0	499	509	
12	0	0	0	0	504	511	
13	0	0	0	0	503	511	
14	0	0	0	0	510	511	
15	0	0	0	0	510	510	
0	0	0	0	0	511	510	
1	0	0	0	0	514	511	
2	0	0	0	0	512	511	
3	0	0	0	0	509	509	
4	0	0	0	0	507	511	
5	0	0	0	0	508	510	
6	0	0	0	0	510	513	
7	0	0	0	0	504	510	
8	0	0	0	0	505	512	
9	0	0	0	0	512	511	
10	0	0	0	0	513	513	
11	0	0	0	0	515	510	
12	0	0	0	0	515	510	
13	0	0	0	0	520	512	
14	0	0	0	0	517	511	
15	0	0	0	0	513	512	
0	0	0	0	0	515	508	
1	0	0	0	0	514	509	
2	0	0	0	0	513	511	
3	0	0	0	0	518	510	
4	0	0	0	0	515	511	
5	0	0	0	0	514	510	
6	0	0	0	0	509	512	
7	0	0	0	0	504	510	
8	0	0	0	0	500	510	
9	0	0	0	0	497	511	
10	0	0	0	0	499	511	
11	0	0	0	0	508	511	
12	0	0	0	0	518	511	
13	0	0	0	0	520	511	
14	0	0	0	0	519	511	
15	0	0	0	0	510	512	
0	0	0	0	0	504	508	
1	0	0	0	0	508	511	
2	0	0	0	0	504	509	
3	0	0	0	0	505	508	
4	0	0	0	0	507	509	
5	0	0	0	0	512	509	
6	0	0	0	0	517	511	
7	0	0	0	0	518	513	
8	0	0	0	0	517	510	
9	0	0	0	0	519	515	
10	0	0	0	0	512	510	
11	0	0	0	0	511	511	
12	0	0	0	0	509	510	
13	0	0	0	0	505	510	
14	0	0	0	0	504	511	
15	0	0	0	0	505	511	
0	0	0	0	0	505	510	
1	0	0	0	0	502	510	
2	0	0	0	0	497	512	
3	0	0	0	0	501	508	
4	0	0	0	0	510	510	
5	0	0	0	0	522	511	
6	0	0	0	0	524	511	
7	0	0	0	0	519	510	
8	0	0	0	0	519	509	
9	0	0	0	0	519	510	
10	0	0	0	0	519	510	
11	0	0	0	0	510	509	
12	0	0	0	0	493	509	
13	0	0	0	0	482	510	
14	0	0	0	0	484	510	
15	0	0	0	0	496	515	
0	0	0	0	0	508	512	
1	0	0	0	0	517	512	
2	0	0	0	0	519	513	
3	0	0	0	0	517	510	
4	0	0	0	0	524	511	
5	0	0	0	0	527	511	
6	0	0	0	0	526	510	
7	0	0	0	0	528	511	
8	0	0	0	0	526	512	
9	0	0	0	0	526	512	
10	0	0	0	0	527	514	
11	0	0	0	0	520	513	
12	0	0	0	0	515	515	
13	0	0	0	0	511	513	
14	0	0	0	0	509	513	
15	0	0	0	0	503	513	
0	0	0	0	0	504	511	
1	0	0	0	0	504	512	
2	0	0	0	0	501	511	
3	0	0	0	0	499	512	
4	0	0	0	0	502	510	
5	0	0	0	0	506	512	
6	0	0	0	0	511	512	
7	0	0	0	0	504	509	
8	0	0	0	0	507	511	
9	0	0	0	0	504	508	
10	0	0	0	0	504	511	
11	0	0	0	0	507	510	
12	0	0	0	0	510	509	
13	0	0	0	0	505	510	
14	0	0	0	0	495	509	
15	0	0	0	0	496	508	
0	0	0	0	0	504	508	
1	0	0	0	0	513	505	
2	0	0	0	0	522	507	
3	0	0	0	0	522	507	
4	0	0	0	0	524	506	
5	0	0	0	0	530	507	
6	0	0	0	0	523	505	
7	0	0	0	0	518	505	
8	0	0	0	0	514	507	
9	0	0	0	0	509	509	
10	0	0	0	0	500	508	
11	0	0	0	0	506	508	
12	0	0	0	0	509	509	
13	0	0	0	0	502	508	
14	0	0	0	0	504	507	
15	0	0	0	0	503	509	
0	0	0	0	0	506	507	
1	0	0	0	0	502	510	
2	0	0	0	0	501	511	
3	0	0	0	0	503	513	
4	0	0	0	0	516	513	
5	0	0	0	0	518	510	
6	0	0	0	0	521	514	
7	0	0	0	0	507	515	
8	0	0	0	0	508	515	
9	0	0	0	0	516	517	
10	0	0	0	0	515	513	
11	0	0	0	0	519	517	
12	0	0	0	0	522	516	
13	0	0	0	0	519	514	
14	0	0	0	0	522	513	
15	0	0	0	0	511	513	
0	0	0	0	0	510	512	
1	0	0	0	0	508	513	
2	0	0	0	0	511	512	
3	0	0	0	0	511	510	
4	0	0	0	0	508	511	
5	0	0	0	0	509	511	
6	0	0	0	0	505	511	
7	0	0	0	0	498	511	
8	0	0	0	0	495	512	
9	0	0	0	0	499	507	
10	0	0	0	0	507	511	
11	0	0	0	0	504	509	
12	0	0	0	0	503	510	
13	0	0	0	0	509	512	
14	0	0	0	0	507	511	
15	0	0	0	0	510	511	
0	0	0	0	0	521	511	
1	0	0	0	0	527	510	
2	0	0	0	0	530	510	
3	0	0	0	0	524	510	
4	0	0	0	0	519	508	
5	0	0	0	0	512	510	
6	0	0	0	0	506	511	
7	0	0	0	0	505	511	
8	0	0	0	0	505	508	
9	0	0	0	0	509	511	
10	0	0	0	0	510	510	
11	0	0	0	0	503	510	
12	0	0	0	0	507	513	
13	0	0	0	0	507	511	
14	0	0	0	0	510	511	
15	0	0	0	0	505	511	
0	0	0	0	0	507	512	
1	0	0	0	0	508	512	
2	0	0	0	0	510	509	
3	0	0	0	0	520	509	
4	0	0	0	0	523	509	
5	0	0	0	0	520	512	
6	0	0	0	0	517	511	
7	0	0	0	0	519	513	
8	0	0	0	0	518	508	
9	0	0	0	0	517	509	
10	0	0	0	0	516	512	
11	0	0	0	0	514	510	
12	0	0	0	0	511	509	
13	0	0	0	0	512	509	
14	0	0	0	0	511	511	
15	0	0	0	0	510	510	
0	0	0	0	0	511	510	
1	0	0	0	0	509	510	
2	0	0	0	0	511	511	
3	0	0	0	0	510	511	
4	0	0	0	0	507	512	
5	0	0	0	0	504	512	
6	0	0	0	0	505	513	
7	0	0	0	0	506	510	
8	0	0	0	0	504	510	
9	0	0	0	0	503	510	
10	0	0	0	0	498	511	
11	0	0	0	0	500	509	
12	0	0	0	0	499	511	
13	0	0	0	0	495	510	
14	0	0	0	0	499	511	
15	0	0	0	0	511	509	
0	0	0	0	0	525	507	
1	0	0	0	0	529	510	
2	0	0	0	0	525	512	
3	0	0	0	0	522	512	
4	0	0	0	0	516	510	
5	0	0	0	0	510	510	
6	0	0	0	0	509	510	
7	0	0	0	0	514	510	
8	0	0	0	0	516	511	
9	0	0	0	0	520	513	
10	0	0	0	0	514	511	
11	0	0	0	0	514	510	
12	0	0	0	0	510	510	
13	0	0	0	0	510	512	
14	0	0	0	0	512	512	
15	0	0	0	0	512	511	
0	0	0	0	0	515	509	
1	0	0	0	0	511	511	
2	0	0	0	0	510	512	
3	0	0	0	0	507	512	
4	0	0	0	0	507	511	
5	0	0	0	0	505	510	
6	0	0	0	0	503	511	
7	0	0	0	0	503	511	
8	0	0	0	0	502	511	
9	0	0	0	0	504	511	
10	0	0	0	0	505	513	
11	0	0	0	0	500	510	
12	0	0	0	0	501	510	
13	0	0	0	0	506	508	
14	0	0	0	0	510	509	
15	0	0	0	0	515	512	
0	0	0	0	0	517	511	
1	0	0	0	0	516	512	
2	0	0	0	0	517	512	
3	0	0	0	0	518	510	
4	0	0	0	0	515	510	
5	0	0	0	0	519	509	
6	0	0	0	0	518	508	
7	0	0	0	0	523	512	
8	0	0	0	0	517	509	
9	0	0	0	0	508	510	
10	0	0	0	0	507	513	
11	0	0	0	0	501	511	
12	0	0	0	0	503	512	
13	0	0	0	0	505	511	
14	0	0	0	0	514	509	
15	0	0	0	0	518	510	
0	0	0	0	0	516	511	
1	0	0	0	0	514	510	
2	0	0	0	0	511	512	
3	0	0	0	0	506	513	
4	0	0	0	0	508	512	
5	0	0	0	0	509	511	
6	0	0	0	0	507	512	
7	0	0	0	0	505	511	
8	0	0	0	0	507	511	
9	0	0	0	0	507	511	
10	0	0	0	0	509	510	
11	0	0	0	0	515	509	
12	0	0	0	0	508	511	
13	0	0	0	0	509	512	
14	0	0	0	0	507	510	
15	0	0	0	0	507	510	
0	0	0	0	0	507	510	
1	0	0	0	0	511	507	
2	0	0	0	0	511	511	
3	0	0	0	0	505	511	
4	0	0	0	0	505	510	
5	0	0	0	0	504	510	
6	0	0	0	0	511	510	
7	0	0	0	0	520	513	
8	0	0	0	0	520	512	
9	0	0	0	0	522	510	
10	0	0	0	0	520	511	
11	0	0	0	0	523	513	
12	0	0	0	0	511	509	
13	0	0	0	0	506	510	
14	0	0	0	0	503	511	
15	0	0	0	0	504	510	
0	0	0	0	0	504	508	
1	0	0	0	0	507	510	
2	0	0	0	0	514	511	
3	0	0	0	0	511	512	
4	0	0	0	0	516	512	
5	0	0	0	0	514	510	
6	0	0	0	0	511	509	
7	0	0	0	0	512	511	
8	0	0	0	0	510	513	
9	0	0	0	0	510	511	
10	0	0	0	0	508	507	
11	0	0	0	0	505	509	
12	0	0	0	0	504	510	
13	0	0	0	0	496	508	
14	0	0	0	0	500	509	
15	0	0	0	0	507	511	
0	0	0	0	0	522	512	
1	0	0	0	0	521	511	
2	0	0	0	0	521	513	
3	0	0	0	0	523	512	
4	0	0	0	0	521	513	
5	0	0	0	0	514	511	
6	0	0	0	0	512	511	
7	0	0	0	0	511	513	
8	0	0	0	0	513	513	
9	0	0	0	0	504	510	
10	0	0	0	0	507	512	
11	0	0	0	0	504	510	
12	0	0	0	0	503	511	
13	0	0	0	0	499	510	
14	0	0	0	0	497	510	
15	0	0	0	0	504	513	
0	0	0	0	0	510	511	
1	0	0	0	0	518	513	
2	0	0	0	0	522	511	
3	0	0	0	0	523	511	
4	0	0	0	0	521	509	
5	0	0	0	0	520	508	
6	0	0	0	0	512	510	
7	0	0	0	0	512	510	
8	0	0	0	0	511	510	
9	0	0	0	0	512	512	
10	0	0	0	0	503	511	
11	0	0	0	0	503	511	
12	0	0	0	0	504	510	
13	0	0	0	0	508	510	
14	0	0	0	0	513	512	
15	0	0	0	0	512	511	
0	0	0	0	0	512	509	
1	0	0	0	0	510	509	
2	0	0	0	0	514	512	
3	0	0	0	0	505	513	
4	0	0	0	0	513	514	
5	0	0	0	0	517	509	
6	0	0	0	0	516	510	
7	0	0	0	0	511	508	
8	0	0	0	0	513	511	
9	0	0	0	0	511	510	
10	0	0	0	0	510	511	
11	0	0	0	0	507	509	
12	0	0	0	0	503	509	
13	0	0	0	0	500	514	
14	0	0	0	0	499	511	
15	0	0	0	0	499	512	
0	0	0	0	0	491	512	
1	0	0	0	0	490	510	
2	0	0	0	0	504	508	
3	0	0	0	0	515	510	
4	0	0	0	0	531	509	
5	0	0	0	0	536	510	
6	0	0	0	0	525	509	
7	0	0	0	0	521	510	
8	0	0	0	0	524	513	
9	0	0	0	0	525	512	
10	0	0	0	0	524	510	
11	0	0	0	0	512	510	
12	0	0	0	0	502	513	
13	0	0	0	0	494	513	
14	0	0	0	0	497	512	
15	0	0	0	0	502	511	
0	0	0	0	0	502	511	
1	0	0	0	0	501	510	
2	0	0	0	0	503	511	
3	0	0	0	0	507	510	
4	0	0	0	0	510	511	
5	0	0	0	0	505	510	
6	0	0	0	0	510	511	
7	0	0	0	0	512	509	
8	0	0	0	0	510	514	
9	0	0	0	0	503	511	
10	0	0	0	0	508	508	
11	0	0	0	0	519	511	
12	0	0	0	0	520	512	
13	0	0	0	0	519	512	
14	0	0	0	0	524	511	
15	0	0	0	0	527	513	
0	0	0	0	0	527	511	
1	0	0	0	0	523	511	
2	0	0	0	0	524	511	
3	0	0	0	0	522	511	
4	0	0	0	0	509	511	
5	0	0	0	0	505	510	
6	0	0	0	0	502	509	
7	0	0	0	0	496	510	
8	0	0	0	0	495	510	
9	0	0	0	0	499	511	
10	0	0	0	0	504	511	
11	0	0	0	0	508	512	
12	0	0	0	0	507	511	
13	0	0	0	0	507	511	
14	0	0	0	0	509	509	
15	0	0	0	0	515	511	
0	0	0	0	0	515	510	
1	0	0	0	0	517	512	
2	0	0	0	0	519	511	
3	0	0	0	0	515	510	
4	0	0	0	0	513	511	
5	0	0	0	0	508	511	
6	0	0	0	0	509	510	
7	0	0	0	0	509	511	
8	0	0	0	0	506	513	
9	0	0	0	0	505	512	
10	0	0	0	0	508	511	
11	0	0	0	0	510	510	
12	0	0	0	0	513	510	
13	0	0	0	0	511	507	
14	0	0	0	0	511	510	
15	0	0	0	0	512	511	
0	0	0	0	0	513	512	
1	0	0	0	0	514	512	
2	0	0	0	0	515	509	
3	0	0	0	0	512	512	
4	0	0	0	0	506	511	
5	0	0	0	0	501	510	
6	0	0	0	0	502	511	
7	0	0	0	0	508	511	
8	0	0	0	0	508	510	
9	0	0	0	0	511	510	
10	0	0	0	0	509	512	
11	0	0	0	0	517	510	
12	0	0	0	0	521	510	
13	0	0	0	0	518	510	
14	0	0	0	0	511	512	
15	0	0	0	0	511	514	
0	0	0	0	0	513	508	
1	0	0	0	0	509	509	
2	0	0	0	0	505	508	
3	0	0	0	0	511	512	
4	0	0	0	0	512	510	
5	0	0	0	0	511	510	
6	0	0	0	0	508	510	
7	0	0	0	0	515	510	
8	0	0	0	0	508	510	
9	0	0	0	0	502	510	
10	0	0	0	0	497	513	
11	0	0	0	0	501	511	
12	0	0	0	0	512	512	
13	0	0	0	0	516	510	
14	0	0	0	0	519	510	
15	0	0	0	0	524	513	
0	0	0	0	0	515	511	
1	0	0	0	0	509	509	
2	0	0	0	0	499	511	
3	0	0	0	0	492	512	
4	0	0	0	0	502	513	
5	0	0	0	0	518	509	
6	0	0	0	0	531	511	
7	0	0	0	0	542	511	
8	0	0	0	0	540	511	
9	0	0	0	0	542	512	
10	0	0	0	0	522	508	
11	0	0	0	0	511	514	
12	0	0	0	0	505	511	
13	0	0	0	0	505	510	
14	0	0	0	0	508	512	
15	0	0	0	0	506	511	
0	0	0	0	0	506	512	
1	0	0	0	0	501	511	
2	0	0	0	0	499	511	
3	0	0	0	0	497	512	
4	0	0	0	0	498	510	
5	0	0	0	0	512	510	
6	0	0	0	0	508	510	
7	0	0	0	0	504	509	
8	0	0	0	0	504	511	
9	0	0	0	0	505	509	
10	0	0	0	0	505	509	
11	0	0	0	0	506	509	
12	0	0	0	0	502	510	
13	0	0	0	0	504	508	
14	0	0	0	0	505	509	
15	0	0	0	0	511	509	
0	0	0	0	0	507	510	
1	0	0	0	0	509	511	
2	0	0	0	0	513	512	
3	0	0	0	0	511	510	
4	0	0	0	0	510	512	
5	0	0	0	0	510	511	
6	0	0	0	0	508	508	
7	0	0	0	0	513	512	
8	0	0	0	0	513	508	
9	0	0	0	0	521	512	
10	0	0	0	0	520	511	
11	0	0	0	0	522	511	
12	0	0	0	0	521	513	
13	0	0	0	0	517	511	
14	0	0	0	0	517	511	
15	0	0	0	0	514	511	
0	0	0	0	0	510	510	
1	0	0	0	0	509	509	
2	0	0	0	0	504	510	
3	0	0	0	0	507	511	
4	0	0	0	0	508	510	
5	0	0	0	0	507	512	
6	0	0	0	0	509	510	
7	0	0	0	0	504	511	
8	0	0	0	0	493	511	
9	0	0	0	0	482	510	
10	0	0	0	0	475	510	
11	0	0	0	0	482	510	
12	0	0	0	0	504	510	
13	0	0	0	0	517	511	
14	0	0	0	0	515	512	
15	0	0	0	0	526	513	
0	0	0	0	0	526	510	
1	0	0	0	0	535	510	
2	0	0	0	0	540	511	
3	0	0	0	0	531	511	
4	0	0	0	0	524	513	
5	0	0	0	0	523	513	
6	0	0	0	0	522	511	
7	0	0	0	0	513	511	
8	0	0	0	0	511	509	
9	0	0	0	0	511	512	
10	0	0	0	0	514	511	
11	0	0	0	0	513	513	
12	0	0	0	0	511	510	
13	0	0	0	0	507	512	
14	0	0	0	0	499	508	
15	0	0	0	0	495	510	
0	0	0	0	0	497	510	
1	0	0	0	0	504	510	
2	0	0	0	0	507	510	
3	0	0	0	0	506	510	
4	0	0	0	0	504	511	
5	0	0	0	0	508	510	
6	0	0	0	0	513	513	
7	0	0	0	0	519	510	
8	0	0	0	0	517	511	
9	0	0	0	0	515	510	
10	0	0	0	0	514	509	
11	0	0	0	0	510	512	
12	0	0	0	0	507	509	
13	0	0	0	0	513	508	
14	0	0	0	0	517	510	
15	0	0	0	0	520	510	
0	0	0	0	0	516	512	
1	0	0	0	0	512	511	
2	0	0	0	0	505	510	
3	0	0	0	0	505	512	
4	0	0	0	0	499	510	
5	0	0	0	0	498	512	
6	0	0	0	0	504	510	
7	0	0	0	0	506	514	
8	0	0	0	0	512	512	
9	0	0	0	0	511	510	
10	0	0	0	0	509	512	
11	0	0	0	0	508	511	
12	0	0	0	0	509	510	
13	0	0	0	0	510	510	
14	0	0	0	0	508	510	
15	0	0	0	0	511	509	
0	0	0	0	0	512	508	
1	0	0	0	0	517	510	
2	0	0	0	0	512	509	
3	0	0	0	0	512	508	
4	0	0	0	0	512	511	
5	0	0	0	0	514	510	
6	0	0	0	0	514	508	
7	0	0	0	0	518	513	
8	0	0	0	0	512	510	
9	0	0	0	0	513	511	
10	0	0	0	0	508	512	
11	0	0	0	0	501	512	
12	0	0	0	0	505	511	
13	0	0	0	0	507	511	
14	0	0	0	0	511	512	
15	0	0	0	0	506	510	
0	0	0	0	0	498	511	
1	0	0	0	0	498	510	
2	0	0	0	0	502	508	
3	0	0	0	0	510	511	
4	0	0	0	0	516	512	
5	0	0	0	0	519	510	
6	0	0	0	0	512	513	
7	0	0	0	0	496	511	
8	0	0	0	0	496	511	
9	0	0	0	0	502	510	
10	0	0	0	0	510	513	
11	0	0	0	0	517	512	
12	0	0	0	0	525	510	
13	0	0	0	0	533	510	
14	0	0	0	0	530	508	
15	0	0	0	0	532	511	
0	0	0	0	0	527	512	
1	0	0	0	0	527	512	
2	0	0	0	0	519	510	
3	0	0	0	0	515	511	
4	0	0	0	0	511	511	
5	0	0	0	0	504	510	
6	0	0	0	0	499	510	
7	0	0	0	0	490	511	
8	0	0	0	0	484	511	
9	0	0	0	0	494	512	
10	0	0	0	0	500	511	
11	0	0	0	0	511	509	
12	0	0	0	0	526	511	
13	0	0	0	0	529	509	
14	0	0	0	0	533	509	
15	0	0	0	0	529	512	
0	0	0	0	0	521	509	
1	0	0	0	0	518	512	
2	0	0	0	0	513	512	
3	0	0	0	0	510	508	
4	0	0	0	0	506	509	
5	0	0	0	0	504	510	
6	0	0	0	0	507	511	
7	0	0	0	0	508	511	
8	0	0	0	0	504	512	
9	0	0	0	0	510	511	
10	0	0	0	0	518	511	
11	0	0	0	0	516	511	
12	0	0	0	0	516	510	
13	0	0	0	0	511	513	
14	0	0	0	0	504	511	
15	0	0	0	0	493	510	
0	0	0	0	0	483	510	
1	0	0	0	0	486	511	
2	0	0	0	0	494	511	
3	0	0	0	0	501	511	
4	0	0	0	0	505	507	
5	0	0	0	0	508	511	
6	0	0	0	0	508	509	
7	0	0	0	0	519	510	
8	0	0	0	0	519	510	
9	0	0	0	0	520	511	
10	0	0	0	0	515	512	
11	0	0	0	0	513	511	
12	0	0	0	0	511	512	
13	0	0	0	0	510	512	
14	0	0	0	0	511	511	
15	0	0	0	0	507	512	
0	0	0	0	0	512	513	
1	0	0	0	0	515	512	
2	0	0	0	0	515	511	
3	0	0	0	0	513	510	
4	0	0	0	0	512	512	
5	0	0	0	0	515	511	
6	0	0	0	0	519	512	
7	0	0	0	0	516	508	
8	0	0	0	0	513	512	
9	0	0	0	0	507	510	
10	0	0	0	0	504	509	
11	0	0	0	0	500	510	
12	0	0	0	0	497	509	
13	0	0	0	0	497	508	
14	0	0	0	0	500	510	
15	0	0	0	0	502	511	
0	0	0	0	0	514	510	
1	0	0	0	0	519	511	
2	0	0	0	0	519	510	
3	0	0	0	0	518	510	
4	0	0	0	0	511	510	
5	0	0	0	0	503	512	
6	0	0	0	0	498	511	
7	0	0	0	0	497	512	
8	0	0	0	0	500	511	
9	0	0	0	0	509	509	
10	0	0	0	0	513	513	
11	0	0	0	0	515	510	
12	0	0	0	0	522	511	
13	0	0	0	0	531	513	
14	0	0	0	0	524	509	
15	0	0	0	0	526	510	
0	0	0	0	0	529	512	
1	0	0	0	0	523	509	
2	0	0	0	0	520	511	
3	0	0	0	0	511	512	
4	0	0	0	0	504	510	
5	0	0	0	0	508	508	
6	0	0	0	0	511	511	
7	0	0	0	0	512	509	
8	0	0	0	0	515	510	
9	0	0	0	0	517	511	
10	0	0	0	0	514	511	
11	0	0	0	0	509	509	
12	0	0	0	0	503	511	
13	0	0	0	0	497	511	
14	0	0	0	0	497	509	
15	0	0	0	0	500	511	
0	0	0	0	0	503	511	
1	0	0	0	0	503	512	
2	0	0	0	0	493	512	
3	0	0	0	0	497	512	
4	0	0	0	0	504	511	
5	0	0	0	0	513	512	
6	0	0	0	0	518	511	
7	0	0	0	0	523	510	
8	0	0	0	0	521	511	
9	0	0	0	0	521	513	
10	0	0	0	0	511	510	
11	0	0	0	0	512	510	
12	0	0	0	0	511	510	
13	0	0	0	0	515	512	
14	0	0	0	0	512	510	
15	0	0	0	0	513	510	
0	0	0	0	0	521	513	
1	0	0	0	0	518	511	
2	0	0	0	0	519	510	
3	0	0	0	0	514	511	
4	0	0	0	0	508	510	
5	0	0	0	0	508	509	
6	0	0	0	0	506	512	
7	0	0	0	0	509	511	
8	0	0	0	0	514	509	
9	0	0	0	0	520	511	
10	0	0	0	0	522	511	
11	0	0	0	0	516	510	
12	0	0	0	0	516	508	
13	0	0	0	0	512	510	
14	0	0	0	0	507	508	
15	0	0	0	0	500	512	
0	0	0	0	0	501	510	
1	0	0	0	0	499	511	
2	0	0	0	0	497	511	
3	0	0	0	0	505	510	
4	0	0	0	0	511	510	
5	0	0	0	0	518	510	
6	0	0	0	0	525	510	
7	0	0	0	0	522	512	
8	0	0	0	0	519	513	
9	0	0	0	0	515	511	
10	0	0	0	0	513	511	
11	0	0	0	0	510	511	
12	0	0	0	0	508	513	
13	0	0	0	0	508	510	
14	0	0	0	0	508	512	
15	0	0	0	0	509	510	
0	0	0	0	0	503	511	
1	0	0	0	0	505	512	
2	0	0	0	0	504	510	
3	0	0	0	0	514	511	
4	0	0	0	0	517	510	
5	0	0	0	0	515	512	
6	0	0	0	0	509	511	
7	0	0	0	0	505	511	
8	0	0	0	0	499	511	
9	0	0	0	0	496	511	
10	0	0	0	0	496	509	
11	0	0	0	0	507	511	
12	0	0	0	0	517	510	
13	0	0	0	0	519	512	
14	0	0	0	0	519	512	
15	0	0	0	0	526	511	
0	0	0	0	0	527	512	
1	0	0	0	0	521	510	
2	0	0	0	0	518	510	
3	0	0	0	0	513	511	
4	0	0	0	0	512	511	
5	0	0	0	0	511	508	
6	0	0	0	0	506	506	
7	0	0	0	0	504	511	
8	0	0	0	0	502	510	
9	0	0	0	0	493	510	
10	0	0	0	0	501	512	
11	0	0	0	0	506	510	
12	0	0	0	0	516	512	
13	0	0	0	0	524	511	
14	0	0	0	0	526	512	
15	0	0	0	0	524	513	
0	0	0	0	0	515	511	
1	0	0	0	0	514	512	
2	0	0	0	0	511	512	
3	0	0	0	0	507	511	
4	0	0	0	0	503	512	
5	0	0	0	0	501	512	
6	0	0	0	0	504	513	
7	0	0	0	0	505	513	
8	0	0	0	0	504	511	
9	0	0	0	0	510	512	
10	0	0	0	0	512	510	
11	0	0	0	0	512	512	
12	0	0	0	0	508	511	
13	0	0	0	0	507	511	
14	0	0	0	0	506	512	
15	0	0	0	0	507	509	
0	0	0	0	0	511	511	
1	0	0	0	0	506	510	
2	0	0	0	0	508	510	
3	0	0	0	0	513	512	
4	0	0	0	0	510	511	
5	0	0	0	0	505	511	
6	0	0	0	0	503	509	
7	0	0	0	0	501	507	
8	0	0	0	0	504	506	
9	0	0	0	0	512	507	
10	0	0	0	0	512	505	
11	0	0	0	0	513	507	
12	0	0	0	0	512	507	
13	0	0	0	0	519	507	
14	0	0	0	0	520	504	
15	0	0	0	0	519	505	
0	0	0	0	0	520	508	
1	0	0	0	0	523	508	
2	0	0	0	0	515	508	
3	0	0	0	0	518	511	
4	0	0	0	0	512	510	
5	0	0	0	0	500	509	
6	0	0	0	0	499	511	
7	0	0	0	0	496	510	
8	0	0	0	0	489	513	
9	0	0	0	0	489	513	
10	0	0	0	0	499	512	
11	0	0	0	0	515	511	
12	0	0	0	0	522	512	
13	0	0	0	0	521	510	
14	0	0	0	0	524	513	
15	0	0	0	0	519	515	
0	0	0	0	0	514	512	
1	0	0	0	0	510	512	
2	0	0	0	0	512	511	
3	0	0	0	0	525	513	
4	0	0	0	0	531	513	
5	0	0	0	0	534	515	
6	0	0	0	0	519	512	
7	0	0	0	0	511	512	
8	0	0	0	0	508	513	
9	0	0	0	0	501	513	
10	0	0	0	0	498	510	
11	0	0	0	0	501	512	
12	0	0	0	0	506	510	
13	0	0	0	0	508	511	
14	0	0	0	0	511	511	
15	0	0	0	0	510	511	
0	0	0	0	0	508	510	
1	0	0	0	0	507	509	
2	0	0	0	0	505	511	
3	0	0	0	0	509	511	
4	0	0	0	0	504	512	
5	0	0	0	0	510	510	
6	0	0	0	0	513	509	
7	0	0	0	0	519	510	
8	0	0	0	0	516	510	
9	0	0	0	0	514	510	
10	0	0	0	0	513	512	
11	0	0	0	0	505	511	
12	0	0	0	0	503	512	
13	0	0	0	0	488	511	
14	0	0	0	0	491	510	
15	0	0	0	0	504	511	
0	0	0	0	0	515	510	
1	0	0	0	0	524	509	
2	0	0	0	0	527	512	
3	0	0	0	0	524	512	
4	0	0	0	0	518	510	
5	0	0	0	0	514	507	
6	0	0	0	0	517	511	
7	0	0	0	0	519	511	
8	0	0	0	0	522	512	
9	0	0	0	0	516	508	
10	0	0	0	0	514	511	
11	0	0	0	0	510	511	
12	0	0	0	0	507	511	
13	0	0	0	0	507	511	
14	0	0	0	0	510	509	
15	0	0	0	0	513	509	
0	0	0	0	0	517	512	
1	0	0	0	0	510	512	
2	0	0	0	0	504	512	
3	0	0	0	0	510	512	
4	0	0	0	0	507	511	
5	0	0	0	0	512	511	
6	0	0	0	0	516	509	
7	0	0	0	0	516	510	
8	0	0	0	0	509	511	
9	0	0	0	0	505	510	
10	0	0	0	0	500	510	
11	0	0	0	0	501	510	
12	0	0	0	0	500	512	
13	0	0	0	0	502	512	
14	0	0	0	0	505	512	
15	0	0	0	0	509	511	
0	0	0	0	0	511	509	
1	0	0	0	0	505	511	
2	0	0	0	0	505	511	
3	0	0	0	0	505	507	
4	0	0	0	0	510	510	
5	0	0	0	0	507	511	
6	0	0	0	0	513	510	
7	0	0	0	0	516	510	
8	0	0	0	0	516	512	
9	0	0	0	0	512	511	
10	0	0	0	0	512	510	
11	0	0	0	0	512	511	
12	0	0	0	0	511	510	
13	0	0	0	0	515	510	
14	0	0	0	0	511	511	
15	0	0	0	0	513	511	
0	0	0	0	0	511	510	
1	0	0	0	0	508	510	
2	0	0	0	0	505	510	
3	0	0	0	0	512	511	
4	0	0	0	0	519	509	
5	0	0	0	0	524	511	
6	0	0	0	0	525	511	
7	0	0	0	0	524	511	
8	0	0	0	0	519	510	
9	0	0	0	0	512	510	
10	0	0	0	0	509	508	
11	0	0	0	0	513	509	
12	0	0	0	0	514	510	
13	0	0	0	0	516	512	
14	0	0	0	0	502	510	
15	0	0	0	0	487	511	
0	0	0	0	0	482	512	
1	0	0	0	0	492	508	
2	0	0	0	0	508	511	
3	0	0	0	0	515	513	
4	0	0	0	0	513	513	
5	0	0	0	0	518	511	
6	0	0	0	0	517	509	
7	0	0	0	0	515	511	
8	0	0	0	0	515	511	
9	0	0	0	0	519	509	
10	0	0	0	0	520	512	
11	0	0	0	0	516	509	
12	0	0	0	0	515	512	
13	0	0	0	0	508	510	
14	0	0	0	0	505	510	
15	0	0	0	0	507	511	
0	0	0	0	0	505	510	
1	0	0	0	0	511	511	
2	0	0	0	0	514	510	
3	0	0	0	0	504	511	
4	0	0	0	0	500	513	
5	0	0	0	0	491	511	
6	0	0	0	0	499	510	
7	0	0	0	0	499	512	
8	0	0	0	0	502	508	
9	0	0	0	0	512	510	
10	0	0	0	0	512	510	
11	0	0	0	0	520	511	
12	0	0	0	0	524	512	
13	0	0	0	0	527	510	
14	0	0	0	0	523	512	
15	0	0	0	0	514	511	
0	0	0	0	0	510	510	
1	0	0	0	0	509	511	
2	0	0	0	0	509	509	
3	0	0	0	0	507	510	
4	0	0	0	0	504	510	
5	0	0	0	0	508	512	
6	0	0	0	0	511	512	
7	0	0	0	0	508	512	
8	0	0	0	0	505	511	
9	0	0	0	0	508	512	
10	0	0	0	0	502	512	
11	0	0	0	0	504	510	
12	0	0	0	0	510	512	
13	0	0	0	0	515	511	
14	0	0	0	0	519	508	
15	0	0	0	0	521	512	
0	0	0	0	0	521	510	
1	0	0	0	0	518	512	
2	0	0	0	0	512	511	
3	0	0	0	0	511	511	
4	0	0	0	0	509	511	
5	0	0	0	0	510	510	
6	0	0	0	0	509	511	
7	0	0	0	0	508	510	
8	0	0	0	0	514	509	
9	0	0	0	0	519	511	
10	0	0	0	0	520	510	
11	0	0	0	0	519	510	
12	0	0	0	0	522	512	
13	0	0	0	0	516	508	
14	0	0	0	0	514	510	
15	0	0	0	0	510	510	
0	0	0	0	0	510	510	
1	0	0	0	0	510	511	
2	0	0	0	0	505	509	
3	0	0	0	0	510	512	
4	0	0	0	0	507	512	
5	0	0	0	0	506	509	
6	0	0	0	0	504	509	
7	0	0	0	0	503	509	
8	0	0	0	0	500	509	
9	0	0	0	0	498	509	
10	0	0	0	0	494	511	
11	0	0	0	0	496	508	
12	0	0	0	0	506	508	
13	0	0	0	0	509	511	
14	0	0	0	0	511	510	
15	0	0	0	0	522	512	
0	0	0	0	0	529	512	
1	0	0	0	0	529	512	
2	0	0	0	0	523	512	
3	0	0	0	0	515	510	
4	0	0	0	0	512	511	
5	0	0	0	0	505	512	
6	0	0	0	0	501	511	
7	0	0	0	0	510	510	
8	0	0	0	0	517	512	
9	0	0	0	0	511	512	
10	0	0	0	0	510	511	
11	0	0	0	0	511	511	
12	0	0	0	0	508	511	
13	0	0	0	0	505	510	
14	0	0	0	0	505	512	
15	0	0	0	0	511	510	
0	0	0	0	0	515	509	
1	0	0	0	0	516	511	
2	0	0	0	0	513	510	
3	0	0	0	0	509	513	
4	0	0	0	0	505	509	
5	0	0	0	0	496	509	
6	0	0	0	0	496	511	
7	0	0	0	0	496	510	
8	0	0	0	0	501	512	
9	0	0	0	0	510	510	
10	0	0	0	0	519	511	
11	0	0	0	0	513	508	
12	0	0	0	0	518	510	
13	0	0	0	0	524	511	
14	0	0	0	0	521	510	
15	0	0	0	0	515	509	
0	0	0	0	0	517	509	
1	0	0	0	0	517	508	
2	0	0	0	0	515	512	
3	0	0	0	0	515	511	
4	0	0	0	0	509	510	
5	0	0	0	0	508	513	
6	0	0	0	0	507	512	
7	0	0	0	0	500	510	
8	0	0	0	0	492	511	
9	0	0	0	0	483	508	
10	0	0	0	0	495	510	
11	0	0	0	0	506	511	
12	0	0	0	0	511	509	
13	0	0	0	0	512	512	
14	0	0	0	0	511	509	
15	0	0	0	0	512	511	
0	0	0	0	0	518	512	
1	0	0	0	0	523	511	
2	0	0	0	0	527	513	
3	0	0	0	0	526	511	
4	0	0	0	0	527	512	
5	0	0	0	0	520	514	
6	0	0	0	0	512	511	
7	0	0	0	0	496	511	
8	0	0	0	0	498	510	
9	0	0	0	0	499	509	
10	0	0	0	0	503	509	
11	0	0	0	0	505	510	
12	0	0	0	0	508	511	
13	0	0	0	0	513	511	
14	0	0	0	0	519	510	
15	0	0	0	0	523	510	
0	0	0	0	0	521	510	
1	0	0	0	0	518	511	
2	0	0	0	0	509	510	
3	0	0	0	0	510	513	
4	0	0	0	0	503	512	
5	0	0	0	0	509	511	
6	0	0	0	0	512	510	
7	0	0	0	0	516	511	
8	0	0	0	0	515	511	
9	0	0	0	0	516	511	
10	0	0	0	0	518	513	
11	0	0	0	0	516	510	
12	0	0	0	0	510	512	
13	0	0	0	0	512	513	
14	0	0	0	0	508	511	
15	0	0	0	0	507	511	
0	0	0	0	0	509	510	
1	0	0	0	0	507	510	
2	0	0	0	0	506	511	
3	0	0	0	0	500	511	
4	0	0	0	0	499	510	
5	0	0	0	0	504	510	
6	0	0	0	0	512	511	
7	0	0	0	0	513	510	
8	0	0	0	0	510	508	
9	0	0	0	0	512	511	
10	0	0	0	0	522	512	
11	0	0	0	0	522	509	
12	0	0	0	0	515	512	
13	0	0	0	0	512	512	
14	0	0	0	0	515	512	
15	0	0	0	0	517	512	
0	0	0	0	0	514	510	
1	0	0	0	0	512	511	
2	0	0	0	0	508	511	
3	0	0	0	0	508	512	
4	0	0	0	0	508	512	
5	0	0	0	0	508	512	
6	0	0	0	0	499	509	
7	0	0	0	0	500	509	
8	0	0	0	0	505	511	
9	0	0	0	0	509	511	
10	0	0	0	0	516	512	
11	0	0	0	0	521	511	
12	0	0	0	0	519	510	
13	0	0	0	0	512	511	
14	0	0	0	0	505	510	
15	0	0	0	0	510	510	
0	0	0	0	0	515	513	
1	0	0	0	0	514	511	
2	0	0	0	0	515	510	
3	0	0	0	0	513	511	
4	0	0	0	0	515	509	
5	0	0	0	0	513	510	
6	0	0	0	0	512	511	
7	0	0	0	0	510	511	
8	0	0	0	0	508	512	
9	0	0	0	0	499	508	
10	0	0	0	0	502	511	
11	0	0	0	0	499	511	
12	0	0	0	0	509	511	
13	0	0	0	0	511	508	
14	0	0	0	0	511	512	
15	0	0	0	0	508	510	
0	0	0	0	0	507	509	
1	0	0	0	0	511	512	
2	0	0	0	0	513	513	
3	0	0	0	0	517	511	
4	0	0	0	0	521	511	
5	0	0	0	0	518	509	
6	0	0	0	0	515	509	
7	0	0	0	0	507	511	
8	0	0	0	0	500	510	
9	0	0	0	0	502	510	
10	0	0	0	0	505	513	
11	0	0	0	0	521	511	
12	0	0	0	0	527	511	
13	0	0	0	0	529	509	
14	0	0	0	0	531	510	
15	0	0	0	0	526	510	
0	0	0	0	0	522	509	
1	0	0	0	0	520	511	
2	0	0	0	0	514	508	
3	0	0	0	0	507	510	
4	0	0	0	0	504	511	
5	0	0	0	0	505	511	
6	0	0	0	0	500	510	
7	0	0	0	0	498	511	
8	0	0	0	0	502	511	
9	0	0	0	0	504	510	
10	0	0	0	0	508	510	
11	0	0	0	0	513	512	
12	0	0	0	0	505	509	
13	0	0	0	0	508	511	
14	0	0	0	0	506	513	
15	0	0	0	0	507	509	
0	0	0	0	0	504	511	
1	0	0	0	0	495	510	
2	0	0	0	0	499	513	
3	0	0	0	0	498	512	
4	0	0	0	0	500	512	
5	0	0	0	0	505	512	
6	0	0	0	0	504	510	
7	0	0	0	0	509	511	
8	0	0	0	0	510	512	
9	0	0	0	0	504	510	
10	0	0	0	0	507	511	
11	0	0	0	0	505	508	
12	0	0	0	0	513	511	
13	0	0	0	0	514	509	
14	0	0	0	0	519	512	
15	0	0	0	0	518	511	
0	0	0	0	0	519	510	
1	0	0	0	0	516	509	
2	0	0	0	0	513	510	
3	0	0	0	0	513	508	
4	0	0	0	0	507	508	
5	0	0	0	0	498	508	
6	0	0	0	0	497	510	
7	0	0	0	0	499	510	
8	0	0	0	0	509	510	
9	0	0	0	0	517	510	
10	0	0	0	0	521	511	
11	0	0	0	0	508	510	
12	0	0	0	0	506	513	
13	0	0	0	0	506	510	
14	0	0	0	0	513	510	
15	0	0	0	0	525	510	
0	0	0	0	0	527	508	
1	0	0	0	0	531	509	
2	0	0	0	0	524	512	
3	0	0	0	0	517	513	
4	0	0	0	0	513	510	
5	0	0	0	0	511	510	
6	0	0	0	0	511	510	
7	0	0	0	0	513	512	
8	0	0	0	0	511	507	
9	0	0	0	0	512	512	
10	0	0	0	0	509	511	
11	0	0	0	0	511	513	
12	0	0	0	0	510	511	
13	0	0	0	0	510	511	
14	0	0	0	0	506	510	
15	0	0	0	0	503	511	
0	0	0	0	0	509	511	
1	0	0	0	0	511	509	
2	0	0	0	0	509	510	
3	0	0	0	0	507	510	
4	0	0	0	0	508	511	
5	0	0	0	0	506	510	
6	0	0	0	0	506	512	
7	0	0	0	0	506	511	
8	0	0	0	0	510	510	
9	0	0	0	0	517	511	
10	0	0	0	0	518	513	
11	0	0	0	0	512	512	
12	0	0	0	0	505	512	
13	0	0	0	0	506	511	
14	0	0	0	0	515	511	
15	0	0	0	0	513	512	
0	0	0	0	0	515	513	
1	0	0	0	0	507	510	
2	0	0	0	0	508	508	
3	0	0	0	0	512	512	
4	0	0	0	0	516	510	
5	0	0	0	0	514	513	
6	0	0	0	0	516	512	
7	0	0	0	0	510	509	
8	0	0	0	0	509	509	
9	0	0	0	0	510	509	
10	0	0	0	0	504	510	
11	0	0	0	0	497	510	
12	0	0	0	0	499	510	
13	0	0	0	0	506	511	
14	0	0	0	0	511	513	
15	0	0	0	0	513	509	
0	0	0	0	0	518	513	
1	0	0	0	0	518	509	
2	0	0	0	0	521	509	
3	0	0	0	0	523	510	
4	0	0	0	0	522	513	
5	0	0	0	0	514	512	
6	0	0	0	0	513	511	
7	0	0	0	0	514	511	
8	0	0	0	0	510	511	
9	0	0	0	0	512	510	
10	0	0	0	0	516	511	
11	0	0	0	0	510	508	
12	0	0	0	0	510	513	
13	0	0	0	0	504	510	
14	0	0	0	0	502	510	
15	0	0	0	0	503	509	
0	0	0	0	0	503	506	
1	0	0	0	0	511	512	
2	0	0	0	0	512	512	
3	0	0	0	0	505	512	
4	0	0	0	0	511	513	
5	0	0	0	0	506	508	
6	0	0	0	0	510	511	
7	0	0	0	0	515	512	
8	0	0	0	0	511	510	
9	0	0	0	0	516	512	
10	0	0	0	0	511	509	
11	0	0	0	0	509	512	
12	0	0	0	0	501	512	
13	0	0	0	0	499	510	
14	0	0	0	0	499	510	
15	0	0	0	0	499	511	
0	0	0	0	0	505	512	
1	0	0	0	0	508	511	
2	0	0	0	0	512	510	
3	0	0	0	0	512	511	
4	0	0	0	0	509	511	
5	0	0	0	0	515	510	
6	0	0	0	0	515	510	
7	0	0	0	0	519	511	
8	0	0	0	0	530	510	
9	0	0	0	0	540	512	
10	0	0	0	0	531	511	
11	0	0	0	0	521	510	
12	0	0	0	0	515	513	
13	0	0	0	0	512	511	
14	0	0	0	0	508	508	
15	0	0	0	0	502	510	
0	0	0	0	0	501	512	
1	0	0	0	0	504	512	
2	0	0	0	0	503	511	
3	0	0	0	0	504	510	
4	0	0	0	0	505	509	
5	0	0	0	0	495	512	
6	0	0	0	0	493	509	
7	0	0	0	0	507	512	
8	0	0	0	0	514	509	
9	0	0	0	0	524	511	
10	0	0	0	0	521	512	
11	0	0	0	0	516	510	
12	0	0	0	0	517	512	
13	0	0	0	0	515	510	
14	0	0	0	0	513	512	
15	0	0	0	0	512	511	
0	0	0	0	0	513	512	
1	0	0	0	0	510	510	
2	0	0	0	0	509	509	
3	0	0	0	0	511	511	
4	0	0	0	0	508	511	
5	0	0	0	0	504	511	
6	0	0	0	0	499	508	
7	0	0	0	0	502	510	
8	0	0	0	0	509	510	
9	0	0	0	0	511	511	
10	0	0	0	0	512	512	
11	0	0	0	0	510	508	
12	0	0	0	0	511	508	
13	0	0	0	0	509	510	
14	0	0	0	0	500	508	
15	0	0	0	0	505	511	
0	0	0	0	0	507	512	
1	0	0	0	0	510	511	
2	0	0	0	0	512	511	
3	0	0	0	0	505	510	
4	0	0	0	0	510	510	
5	0	0	0	0	513	509	
6	0	0	0	0	515	511	
7	0	0	0	0	510	512	
8	0	0	0	0	508	511	
9	0	0	0	0	517	511	
10	0	0	0	0	519	509	
11	0	0	0	0	516	509	
12	0	0	0	0	519	512	
13	0	0	0	0	517	510	
14	0	0	0	0	513	511	
15	0	0	0	0	514	510	
0	0	0	0	0	508	511	
1	0	0	0	0	511	512	
2	0	0	0	0	507	513	
3	0	0	0	0	510	513	
4	0	0	0	0	512	513	
5	0	0	0	0	512	513	
6	0	0	0	0	510	514	
7	0	0	0	0	510	512	
8	0	0	0	0	509	512	
9	0	0	0	0	509	510	
10	0	0	0	0	508	509	
11	0	0	0	0	509	512	
12	0	0	0	0	501	510	
13	0	0	0	0	503	510	
14	0	0	0	0	501	509	
15	0	0	0	0	500	509	
0	0	0	0	0	505	508	
1	0	0	0	0	511	510	
2	0	0	0	0	516	510	
3	0	0	0	0	515	511	
4	0	0	0	0	512	508	
5	0	0	0	0	508	510	
6	0	0	0	0	508	512	
7	0	0	0	0	511	514	
8	0	0	0	0	514	512	
9	0	0	0	0	511	507	
10	0	0	0	0	512	510	
11	0	0	0	0	518	508	
12	0	0	0	0	515	511	
13	0	0	0	0	519	513	
14	0	0	0	0	521	512	
15	0	0	0	0	520	511	
0	0	0	0	0	520	510	
1	0	0	0	0	519	511	
2	0	0	0	0	521	511	
3	0	0	0	0	521	510	
4	0	0	0	0	518	509	
5	0	0	0	0	514	512	
6	0	0	0	0	506	511	
7	0	0	0	0	502	512	
8	0	0	0	0	504	511	
9	0	0	0	0	514	512	
10	0	0	0	0	512	510	
11	0	0	0	0	510	511	
12	0	0	0	0	504	511	
13	0	0	0	0	508	511	
14	0	0	0	0	503	511	
15	0	0	0	0	502	511	
0	0	0	0	0	502	510	
1	0	0	0	0	501	512	
2	0	0	0	0	501	508	
3	0	0	0	0	502	509	
4	0	0	0	0	504	510	
5	0	0	0	0	513	510	
6	0	0	0	0	520	511	
7	0	0	0	0	518	508	
8	0	0	0	0	521	511	
9	0	0	0	0	518	510	
10	0	0	0	0	515	513	
11	0	0	0	0	511	511	
12	0	0	0	0	514	512	
13	0	0	0	0	515	511	
14	0	0	0	0	511	511	
15	0	0	0	0	505	511	
0	0	0	0	0	503	510	
1	0	0	0	0	505	511	
2	0	0	0	0	505	513	
3	0	0	0	0	509	512	
4	0	0	0	0	507	509	
5	0	0	0	0	508	513	
6	0	0	0	0	502	511	
7	0	0	0	0	503	512	
8	0	0	0	0	507	510	
9	0	0	0	0	507	509	
10	0	0	0	0	505	508	
11	0	0	0	0	510	511	
12	0	0	0	0	509	510	
13	0	0	0	0	511	509	
14	0	0	0	0	512	509	
15	0	0	0	0	515	511	
0	0	0	0	0	513	509	
1	0	0	0	0	519	512	
2	0	0	0	0	518	511	
3	0	0	0	0	513	511	
4	0	0	0	0	521	512	
5	0	0	0	0	518	511	
6	0	0	0	0	522	510	
7	0	0	0	0	519	512	
8	0	0	0	0	519	511	
9	0	0	0	0	518	513	
10	0	0	0	0	517	510	
11	0	0	0	0	515	512	
12	0	0	0	0	510	510	
13	0	0	0	0	508	512	
14	0	0	0	0	503	511	
15	0	0	0	0	506	509	
0	0	0	0	0	504	511	
1	0	0	0	0	504	510	
2	0	0	0	0	499	510	
3	0	0	0	0	496	511	
4	0	0	0	0	497	508	
5	0	0	0	0	511	510	
6	0	0	0	0	515	510	
7	0	0	0	0	521	511	
8	0	0	0	0	519	510	
9	0	0	0	0	517	512	
10	0	0	0	0	513	511	
11	0	0	0	0	508	512	
12	0	0	0	0	511	510	
13	0	0	0	0	512	510	
14	0	0	0	0	514	511	
15	0	0	0	0	512	512	
0	0	0	0	0	511	508	
1	0	0	0	0	513	510	
2	0	0	0	0	513	509	
3	0	0	0	0	510	509	
4	0	0	0	0	515	511	
5	0	0	0	0	513	509	
6	0	0	0	0	515	509	
7	0	0	0	0	508	511	
8	0	0	0	0	506	512	
9	0	0	0	0	504	511	
10	0	0	0	0	504	511	
11	0	0	0	0	503	513	
12	0	0	0	0	502	512	
13	0	0	0	0	502	509	
14	0	0	0	0	497	512	
15	0	0	0	0	497	511	
0	0	0	0	0	502	511	
1	0	0	0	0	507	513	
2	0	0	0	0	504	508	
3	0	0	0	0	509	513	
4	0	0	0	0	508	512	
5	0	0	0	0	511	511	
6	0	0	0	0	520	514	
7	0	0	0	0	527	514	
8	0	0	0	0	529	513	
9	0	0	0	0	530	511	
10	0	0	0	0	523	512	
11	0	0	0	0	518	512	
12	0	0	0	0	514	511	
13	0	0	0	0	512	511	
14	0	0	0	0	508	512	
15	0	0	0	0	508	513	
0	0	0	0	0	508	513	
1	0	0	0	0	515	512	
2	0	0	0	0	521	513	
3	0	0	0	0	515	512	
4	0	0	0	0	515	512	
5	0	0	0	0	507	511	
6	0	0	0	0	503	511	
7	0	0	0	0	506	513	
8	0	0	0	0	507	511	
9	0	0	0	0	511	512	
10	0	0	0	0	512	510	
11	0	0	0	0	515	510	
12	0	0	0	0	516	510	
13	0	0	0	0	514	508	
14	0	0	0	0	511	508	
15	0	0	0	0	512	511	
0	0	0	0	0	507	506	
1	0	0	0	0	502	508	
2	0	0	0	0	501	507	
3	0	0	0	0	507	505	
4	0	0	0	0	512	504	
5	0	0	0	0	514	505	
6	0	0	0	0	511	508	
7	0	0	0	0	512	508	
8	0	0	0	0	513	508	
9	0	0	0	0	518	508	
10	0	0	0	0	517	507	
11	0	0	0	0	520	507	
12	0	0	0	0	511	508	
13	0	0	0	0	511	509	
14	0	0	0	0	505	508	
15	0	0	0	0	503	508	
0	0	0	0	0	500	510	
1	0	0	0	0	500	511	
2	0	0	0	0	502	512	
3	0	0	0	0	504	515	
4	0	0	0	0	503	513	
5	0	0	0	0	506	513	
6	0	0	0	0	512	513	
7	0	0	0	0	516	513	
8	0	0	0	0	511	514	
9	0	0	0	0	510	514	
10	0	0	0	0	514	513	
11	0	0	0	0	512	511	
12	0	0	0	0	508	512	
13	0	0	0	0	499	514	
14	0	0	0	0	495	512	
15	0	0	0	0	504	515	
0	0	0	0	0	509	511	
1	0	0	0	0	509	512	
2	0	0	0	0	508	512	
3	0	0	0	0	513	508	
4	0	0	0	0	522	510	
5	0	0	0	0	530	510	
6	0	0	0	0	534	511	
7	0	0	0	0	533	510	
8	0	0	0	0	526	509	
9	0	0	0	0	528	510	
10	0	0	0	0	521	511	
11	0	0	0	0	517	511	
12	0	0	0	0	510	512	
13	0	0	0	0	504	510	
14	0	0	0	0	503	512	
15	0	0	0	0	503	514	
0	0	0	0	0	503	511	
1	0	0	0	0	497	511	
2	0	0	0	0	497	510	
3	0	0	0	0	503	511	
4	0	0	0	0	506	512	
5	0	0	0	0	507	510	
6	0	0	0	0	513	511	
7	0	0	0	0	508	508	
8	0	0	0	0	507	510	
9	0	0	0	0	508	508	
10	0	0	0	0	509	511	
11	0	0	0	0	512	512	
12	0	0	0	0	512	510	
13	0	0	0	0	518	513	
14	0	0	0	0	516	511	
15	0	0	0	0	514	510	
0	0	0	0	0	512	511	
1	0	0	0	0	505	509	
2	0	0	0	0	505	509	
3	0	0	0	0	508	509	
4	0	0	0	0	508	512	
5	0	0	0	0	510	509	
6	0	0	0	0	510	513	
7	0	0	0	0	511	511	
8	0	0	0	0	513	511	
9	0	0	0	0	514	512	
10	0	0	0	0	514	509	
11	0	0	0	0	504	509	
12	0	0	0	0	508	510	
13	0	0	0	0	512	510	
14	0	0	0	0	515	509	
15	0	0	0	0	520	511	
0	0	0	0	0	516	509	
1	0	0	0	0	515	512	
2	0	0	0	0	512	508	
3	0	0	0	0	511	512	
4	0	0	0	0	503	509	
5	0	0	0	0	502	509	
6	0	0	0	0	506	513	
7	0	0	0	0	513	510	
8	0	0	0	0	512	512	
9	0	0	0	0	518	512	
10	0	0	0	0	517	511	
11	0	0	0	0	523	512	
12	0	0	0	0	513	510	
13	0	0	0	0	511	511	
14	0	0	0	0	510	508	
15	0	0	0	0	508	510	
0	0	0	0	0	508	511	
1	0	0	0	0	505	509	
2	0	0	0	0	507	509	
3	0	0	0	0	504	510	
4	0	0	0	0	503	508	
5	0	0	0	0	510	509	
6	0	0	0	0	516	511	
7	0	0	0	0	516	511	
8	0	0	0	0	514	511	
9	0	0	0	0	519	511	
10	0	0	0	0	510	512	
11	0	0	0	0	498	512	
12	0	0	0	0	500	512	
13	0	0	0	0	507	512	
14	0	0	0	0	512	511	
15	0	0	0	0	517	510	
0	0	0	0	0	511	510	
1	0	0	0	0	512	512	
2	0	0	0	0	513	512	
3	0	0	0	0	503	510	
4	0	0	0	0	496	510	
5	0	0	0	0	492	509	
6	0	0	0	0	489	512	
7	0	0	0	0	492	508	
8	0	0	0	0	505	511	
9	0	0	0	0	510	510	
10	0	0	0	0	513	510	
11	0	0	0	0	519	511	
12	0	0	0	0	516	511	
13	0	0	0	0	511	509	
14	0	0	0	0	504	509	
15	0	0	0	0	510	512	
0	0	0	0	0	509	513	
1	0	0	0	0	507	514	
2	0	0	0	0	511	511	
3	0	0	0	0	506	514	
4	0	0	0	0	510	510	
5	0	0	0	0	521	510	
6	0	0	0	0	527	510	
7	0	0	0	0	524	511	
8	0	0	0	0	528	511	
9	0	0	0	0	534	512	
10	0	0	0	0	534	510	
11	0	0	0	0	535	513	
12	0	0	0	0	528	510	
13	0	0	0	0	523	511	
14	0	0	0	0	512	510	
15	0	0	0	0	506	510	
0	0	0	0	0	504	510	
1	0	0	0	0	503	510	
2	0	0	0	0	500	510	
3	0	0	0	0	504	510	
4	0	0	0	0	505	512	
5	0	0	0	0	503	510	
6	0	0	0	0	507	508	
7	0	0	0	0	506	510	
8	0	0	0	0	507	510	
9	0	0	0	0	505	510	
10	0	0	0	0	507	512	
11	0	0	0	0	503	509	
12	0	0	0	0	510	512	
13	0	0	0	0	510	511	
14	0	0	0	0	506	510	
15	0	0	0	0	502	510	
0	0	0	0	0	504	511	
1	0	0	0	0	509	511	
2	0	0	0	0	514	510	
3	0	0	0	0	518	510	
4	0	0	0	0	524	511	
5	0	0	0	0	523	511	
6	0	0	0	0	518	510	
7	0	0	0	0	513	511	
8	0	0	0	0	510	512	
9	0	0	0	0	504	513	
10	0	0	0	0	509	514	
11	0	0	0	0	504	511	
12	0	0	0	0	501	511	
13	0	0	0	0	499	511	
14	0	0	0	0	501	511	
15	0	0	0	0	505	510	
0	0	0	0	0	511	511	
1	0	0	0	0	508	510	
2	0	0	0	0	517	511	
3	0	0	0	0	528	508	
4	0	0	0	0	527	509	
5	0	0	0	0	512	509	
6	0	0	0	0	504	511	
7	0	0	0	0	511	511	
8	0	0	0	0	511	510	
9	0	0	0	0	519	508	
10	0	0	0	0	525	511	
11	0	0	0	0	519	511	
12	0	0	0	0	517	511	
13	0	0	0	0	515	512	
14	0	0	0	0	498	509	
15	0	0	0	0	502	510	
0	0	0	0	0	507	512	
1	0	0	0	0	511	511	
2	0	0	0	0	517	511	
3	0	0	0	0	520	508	
4	0	0	0	0	523	512	
5	0	0	0	0	523	510	
6	0	0	0	0	522	512	
7	0	0	0	0	512	511	
8	0	0	0	0	504	512	
9	0	0	0	0	500	508	
10	0	0	0	0	497	508	
11	0	0	0	0	496	512	
12	0	0	0	0	496	511	
13	0	0	0	0	492	511	
14	0	0	0	0	496	512	
15	0	0	0	0	499	508	
0	0	0	0	0	509	510	
1	0	0	0	0	514	511	
2	0	0	0	0	523	512	
3	0	0	0	0	529	513	
4	0	0	0	0	519	509	
5	0	0	0	0	511	511	
6	0	0	0	0	509	510	
7	0	0	0	0	515	510	
8	0	0	0	0	515	509	
9	0	0	0	0	509	511	
10	0	0	0	0	511	511	
11	0	0	0	0	513	510	
12	0	0	0	0	515	510	
13	0	0	0	0	512	511	
14	0	0	0	0	508	512	
15	0	0	0	0	505	512	
0	0	0	0	0	508	512	
1	0	0	0	0	504	510	
2	0	0	0	0	508	511	
3	0	0	0	0	505	509	
4	0	0	0	0	507	511	
5	0	0	0	0	508	512	
6	0	0	0	0	511	509	
7	0	0	0	0	517	510	
8	0	0	0	0	523	510	
9	0	0	0	0	522	510	
10	0	0	0	0	514	511	
11	0	0	0	0	504	508	
12	0	0	0	0	503	511	
13	0	0	0	0	501	509	
14	0	0	0	0	509	510	
15	0	0	0	0	513	512	
0	0	0	0	0	513	510	
1	0	0	0	0	520	513	
2	0	0	0	0	519	512	
3	0	0	0	0	516	514	
4	0	0	0	0	513	509	
5	0	0	0	0	510	511	
6	0	0	0	0	507	510	
7	0	0	0	0	516	511	
8	0	0	0	0	516	510	
9	0	0	0	0	513	510	
10	0	0	0	0	511	510	
11	0	0	0	0	513	511	
12	0	0	0	0	512	510	
13	0	0	0	0	511	510	
14	0	0	0	0	501	513	
15	0	0	0	0	498	510	
0	0	0	0	0	505	512	
1	0	0	0	0	508	512	
2	0	0	0	0	511	512	
3	0	0	0	0	511	510	
4	0	0	0	0	502	511	
5	0	0	0	0	504	511	
6	0	0	0	0	505	511	
7	0	0	0	0	502	510	
8	0	0	0	0	504	512	
9	0	0	0	0	500	508	
10	0	0	0	0	502	509	
11	0	0	0	0	512	510	
12	0	0	0	0	522	511	
13	0	0	0	0	527	512	
14	0	0	0	0	524	510	
15	0	0	0	0	519	512	
0	0	0	0	0	511	512	
1	0	0	0	0	507	512	
2	0	0	0	0	508	511	
3	0	0	0	0	511	512	
4	0	0	0	0	511	511	
5	0	0	0	0	512	511	
6	0	0	0	0	505	511	
7	0	0	0	0	511	513	
8	0	0	0	0	511	509	
9	0	0	0	0	510	510	
10	0	0	0	0	511	511	
11	0	0	0	0	515	511	
12	0	0	0	0	513	510	
13	0	0	0	0	513	511	
14	0	0	0	0	509	511	
15	0	0	0	0	504	511	
0	0	0	0	0	499	510	
1	0	0	0	0	503	511	
2	0	0	0	0	503	510	
3	0	0	0	0	503	511	
4	0	0	0	0	502	511	
5	0	0	0	0	504	510	
6	0	0	0	0	512	511	
7	0	0	0	0	520	508	
8	0	0	0	0	523	512	
9	0	0	0	0	526	511	
10	0	0	0	0	527	513	
11	0	0	0	0	518	510	
12	0	0	0	0	515	509	
13	0	0	0	0	519	512	
14	0	0	0	0	517	510	
15	0	0	0	0	518	509	
0	0	0	0	0	511	511	
1	0	0	0	0	502	511	
2	0	0	0	0	502	511	
3	0	0	0	0	502	508	
4	0	0	0	0	504	510	
5	0	0	0	0	512	513	
6	0	0	0	0	511	508	
7	0	0	0	0	513	511	
8	0	0	0	0	512	511	
9	0	0	0	0	508	511	
10	0	0	0	0	500	509	
11	0	0	0	0	493	512	
12	0	0	0	0	498	512	
13	0	0	0	0	502	512	
14	0	0	0	0	510	511	
15	0	0	0	0	513	509	
0	0	0	0	0	517	510	
1	0	0	0	0	513	511	
2	0	0	0	0	508	511	
3	0	0	0	0	508	510	
4	0	0	0	0	509	508	
5	0	0	0	0	512	509	
6	0	0	0	0	514	512	
7	0	0	0	0	519	511	
8	0	0	0	0	523	511	
9	0	0	0	0	523	510	
10	0	0	0	0	517	513	
11	0	0	0	0	509	511	
12	0	0	0	0	508	510	
13	0	0	0	0	509	512	
14	0	0	0	0	512	510	
15	0	0	0	0	513	512	
0	0	0	0	0	515	511	
1	0	0	0	0	512	510	
2	0	0	0	0	509	511	
3	0	0	0	0	510	512	
4	0	0	0	0	513	511	
5	0	0	0	0	514	512	
6	0	0	0	0	515	510	
7	0	0	0	0	510	510	
8	0	0	0	0	505	508	
9	0	0	0	0	503	509	
10	0	0	0	0	501	511	
11	0	0	0	0	504	510	
12	0	0	0	0	505	510	
13	0	0	0	0	503	511	
14	0	0	0	0	497	511	
15	0	0	0	0	502	512	
0	0	0	0	0	509	511	
1	0	0	0	0	516	510	
2	0	0	0	0	519	510	
3	0	0	0	0	517	510	
4	0	0	0	0	519	512	
5	0	0	0	0	525	511	
6	0	0	0	0	529	513	
7	0	0	0	0	524	510	
8	0	0	0	0	521	510	
9	0	0	0	0	523	510	
10	0	0	0	0	513	510	
11	0	0	0	0	508	509	
12	0	0	0	0	502	512	
13	0	0	0	0	495	510	
14	0	0	0	0	498	510	
15	0	0	0	0	498	510	
0	0	0	0	0	495	510	
1	0	0	0	0	500	512	
2	0	0	0	0	495	509	
3	0	0	0	0	507	512	
4	0	0	0	0	509	510	
5	0	0	0	0	512	510	
6	0	0	0	0	510	510	
7	0	0	0	0	509	507	
8	0	0	0	0	511	510	
9	0	0	0	0	507	511	
10	0	0	0	0	511	513	
11	0	0	0	0	516	511	
12	0	0	0	0	527	509	
13	0	0	0	0	534	512	
14	0	0	0	0	535	511	
15	0	0	0	0	527	513	
0	0	0	0	0	511	512	
1	0	0	0	0	499	512	
2	0	0	0	0	503	514	
3	0	0	0	0	505	510	
4	0	0	0	0	504	512	
5	0	0	0	0	508	512	
6	0	0	0	0	515	511	
7	0	0	0	0	514	509	
8	0	0	0	0	516	512	
9	0	0	0	0	515	510	
10	0	0	0	0	512	508	
11	0	0	0	0	507	510	
12	0	0	0	0	507	511	
13	0	0	0	0	505	512	
14	0	0	0	0	508	512	
15	0	0	0	0	510	512	
0	0	0	0	0	508	510	
1	0	0	0	0	512	512	
2	0	0	0	0	509	510	
3	0	0	0	0	506	511	
4	0	0	0	0	508	511	
5	0	0	0	0	511	511	
6	0	0	0	0	507	510	
7	0	0	0	0	506	510	
8	0	0	0	0	502	510	
9	0	0	0	0	502	512	
10	0	0	0	0	508	510	
11	0	0	0	0	509	510	
12	0	0	0	0	511	510	
13	0	0	0	0	514	511	
14	0	0	0	0	515	508	
15	0	0	0	0	515	511	
0	0	0	0	0	509	511	
1	0	0	0	0	507	512	
2	0	0	0	0	504	511	
3	0	0	0	0	504	511	
4	0	0	0	0	500	512	
5	0	0	0	0	502	511	
6	0	0	0	0	504	512	
7	0	0	0	0	508	511	
8	0	0	0	0	512	511	
9	0	0	0	0	514	510	
10	0	0	0	0	511	512	
11	0	0	0	0	520	512	
12	0	0	0	0	525	512	
13	0	0	0	0	524	512	
14	0	0	0	0	519	510	
15	0	0	0	0	516	513	
0	0	0	0	0	514	510	
1	0	0	0	0	517	511	
2	0	0	0	0	516	509	
3	0	0	0	0	513	512	
4	0	0	0	0	511	512	
5	0	0	0	0	510	511	
6	0	0	0	0	507	511	
7	0	0	0	0	505	512	
8	0	0	0	0	505	510	
9	0	0	0	0	503	509	
10	0	0	0	0	508	513	
11	0	0	0	0	514	510	
12	0	0	0	0	519	510	
13	0	0	0	0	518	508	
14	0	0	0	0	519	510	
15	0	0	0	0	517	508	
0	0	0	0	0	514	510	
1	0	0	0	0	508	512	
2	0	0	0	0	505	511	
3	0	0	0	0	508	513	
4	0	0	0	0	514	511	
5	0	0	0	0	513	511	
6	0	0	0	0	510	512	
7	0	0	0	0	505	511	
8	0	0	0	0	504	510	
9	0	0	0	0	505	512	
10	0	0	0	0	505	511	
11	0	0	0	0	510	512	
12	0	0	0	0	507	508	
13	0	0	0	0	512	512	
14	0	0	0	0	509	511	
15	0	0	0	0	501	510	
0	0	0	0	0	502	512	
1	0	0	0	0	504	511	
2	0	0	0	0	508	510	
3	0	0	0	0	508	511	
4	0	0	0	0	513	509	
5	0	0	0	0	516	510	
6	0	0	0	0	514	506	
7	0	0	0	0	515	511	
8	0	0	0	0	513	511	
9	0	0	0	0	517	509	
10	0	0	0	0	519	510	
11	0	0	0	0	515	511	
12	0	0	0	0	518	510	
13	0	0	0	0	517	512	
14	0	0	0	0	522	512	
15	0	0	0	0	518	510	
0	0	0	0	0	515	511	
1	0	0	0	0	513	511	
2	0	0	0	0	511	510	
3	0	0	0	0	502	510	
4	0	0	0	0	498	512	
5	0	0	0	0	500	511	
6	0	0	0	0	511	510	
7	0	0	0	0	505	511	
8	0	0	0	0	502	510	
9	0	0	0	0	502	511	
10	0	0	0	0	510	512	
11	0	0	0	0	508	511	
12	0	0	0	0	508	510	
13	0	0	0	0	510	510	
14	0	0	0	0	507	511	
15	0	0	0	0	508	511	
0	0	0	0	0	511	512	
1	0	0	0	0	512	511	
2	0	0	0	0	516	512	
3	0	0	0	0	521	510	
4	0	0	0	0	521	509	
5	0	0	0	0	521	511	
6	0	0	0	0	519	510	
7	0	0	0	0	521	511	
8	0	0	0	0	518	512	
9	0	0	0	0	506	509	
10	0	0	0	0	505	511	
11	0	0	0	0	504	511	
12	0	0	0	0	510	511	
13	0	0	0	0	516	511	
14	0	0	0	0	515	509	
15	0	0	0	0	518	512	
0	0	0	0	0	514	511	
1	0	0	0	0	507	511	
2	0	0	0	0	510	513	
3	0	0	0	0	507	508	
4	0	0	0	0	507	511	
5	0	0	0	0	502	510	
6	0	0	0	0	504	512	
7	0	0	0	0	505	509	
8	0	0	0	0	504	511	
9	0	0	0	0	507	513	
10	0	0	0	0	507	511	
11	0	0	0	0	506	511	
12	0	0	0	0	508	510	
13	0	0	0	0	506	510	
14	0	0	0	0	509	513	
15	0	0	0	0	505	512	
0	0	0	0	0	504	510	
1	0	0	0	0	510	510	
2	0	0	0	0	515	511	
3	0	0	0	0	519	510	
4	0	0	0	0	522	511	
5	0	0	0	0	520	510	
6	0	0	0	0	521	512	
7	0	0	0	0	517	507	
8	0	0	0	0	514	511	
9	0	0	0	0	509	512	
10	0	0	0	0	508	510	
11	0	0	0	0	511	510	
12	0	0	0	0	515	511	
13	0	0	0	0	516	511	
14	0	0	0	0	513	510	
15	0	0	0	0	513	510	
0	0	0	0	0	513	511	
1	0	0	0	0	515	509	
2	0	0	0	0	508	510	
3	0	0	0	0	505	510	
4	0	0	0	0	503	511	
5	0	0	0	0	506	511	
6	0	0	0	0	504	510	
7	0	0	0	0	504	510	
8	0	0	0	0	503	510	
9	0	0	0	0	503	510	
10	0	0	0	0	499	509	
11	0	0	0	0	510	510	
12	0	0	0	0	510	511	
13	0	0	0	0	509	511	
14	0	0	0	0	512	511	
15	0	0	0	0	515	512	
0	0	0	0	0	515	512	
1	0	0	0	0	515	511	
2	0	0	0	0	518	511	
3	0	0	0	0	520	510	
4	0	0	0	0	526	512	
5	0	0	0	0	519	509	
6	0	0	0	0	515	511	
7	0	0	0	0	512	511	
8	0	0	0	0	510	512	
9	0	0	0	0	507	508	
10	0	0	0	0	510	508	
11	0	0	0	0	509	512	
12	0	0	0	0	508	511	
13	0	0	0	0	508	509	
14	0	0	0	0	511	511	
15	0	0	0	0	506	510	
0	0	0	0	0	507	510	
1	0	0	0	0	503	510	
2	0	0	0	0	500	510	
3	0	0	0	0	499	511	
4	0	0	0	0	503	509	
5	0	0	0	0	513	510	
6	0	0	0	0	515	510	
7	0	0	0	0	513	512	
8	0	0	0	0	509	512	
9	0	0	0	0	506	512	
10	0	0	0	0	507	510	
11	0	0	0	0	504	509	
12	0	0	0	0	510	511	
13	0	0	0	0	510	512	
14	0	0	0	0	507	509	
15	0	0	0	0	512	511	
0	0	0	0	0	512	512	
1	0	0	0	0	515	511	
2	0	0	0	0	514	510	
3	0	0	0	0	515	511	
4	0	0	0	0	517	510	
5	0	0	0	0	520	510	
6	0	0	0	0	516	513	
7	0	0	0	0	515	512	
8	0	0	0	0	507	510	
9	0	0	0	0	511	512	
10	0	0	0	0	514	510	
11	0	0	0	0	519	510	
12	0	0	0	0	519	511	
13	0	0	0	0	515	510	
14	0	0	0	0	510	512	
15	0	0	0	0	510	512	
0	0	0	0	0	511	511	
1	0	0	0	0	510	512	
2	0	0	0	0	514	512	
3	0	0	0	0	511	509	
4	0	0	0	0	511	509	
5	0	0	0	0	513	510	
6	0	0	0	0	515	511	
7	0	0	0	0	509	509	
8	0	0	0	0	507	511	
9	0	0	0	0	501	508	
10	0	0	0	0	502	511	
11	0	0	0	0	493	513	
12	0	0	0	0	497	513	
13	0	0	0	0	499	513	
14	0	0	0	0	505	511	
15	0	0	0	0	516	510	
0	0	0	0	0	522	511	
1	0	0	0	0	518	508	
2	0	0	0	0	514	513	
3	0	0	0	0	510	512	
4	0	0	0	0	511	510	
5	0	0	0	0	512	514	
6	0	0	0	0	515	511	
7	0	0	0	0	517	512	
8	0	0	0	0	516	508	
9	0	0	0	0	516	511	
10	0	0	0	0	511	511	
11	0	0	0	0	511	510	
12	0	0	0	0	503	511	
13	0	0	0	0	489	511	
14	0	0	0	0	489	510	
15	0	0	0	0	496	511	
0	0	0	0	0	504	511	
1	0	0	0	0	516	513	
2	0	0	0	0	519	510	
3	0	0	0	0	521	511	
4	0	0	0	0	522	511	
5	0	0	0	0	518	512	
6	0	0	0	0	511	509	
7	0	0	0	0	508	511	
8	0	0	0	0	507	512	
9	0	0	0	0	509	512	
10	0	0	0	0	511	508	
11	0	0	0	0	515	510	
12	0	0	0	0	515	510	
13	0	0	0	0	517	512	
14	0	0	0	0	513	511	
15	0	0	0	0	513	511	
0	0	0	0	0	513	512	
1	0	0	0	0	514	512	
2	0	0	0	0	509	513	
3	0	0	0	0	511	511	
4	0	0	0	0	508	512	
5	0	0	0	0	500	511	
6	0	0	0	0	500	509	
7	0	0	0	0	495	510	
8	0	0	0	0	497	509	
9	0	0	0	0	502	510	
10	0	0	0	0	504	512	
11	0	0	0	0	506	513	
12	0	0	0	0	516	513	
13	0	0	0	0	524	512	
14	0	0	0	0	528	512	
15	0	0	0	0	532	513	
0	0	0	0	0	529	511	
1	0	0	0	0	525	512	
2	0	0	0	0	515	511	
3	0	0	0	0	511	512	
4	0	0	0	0	505	515	
5	0	0	0	0	495	513	
6	0	0	0	0	486	513	
7	0	0	0	0	487	514	
8	0	0	0	0	504	511	
9	0	0	0	0	515	511	
10	0	0	0	0	521	511	
11	0	0	0	0	531	511	
12	0	0	0	0	533	510	
13	0	0	0	0	533	510	
14	0	0	0	0	529	513	
15	0	0	0	0	518	512	
0	0	0	0	0	512	510	
1	0	0	0	0	511	507	
2	0	0	0	0	512	510	
3	0	0	0	0	514	511	
4	0	0	0	0	507	508	
5	0	0	0	0	504	508	
6	0	0	0	0	502	506	
7	0	0	0	0	504	506	
8	0	0	0	0	501	509	
9	0	0	0	0	494	505	
10	0	0	0	0	494	505	
11	0	0	0	0	498	506	
12	0	0	0	0	502	505	
13	0	0	0	0	509	508	
14	0	0	0	0	513	505	
15	0	0	0	0	518	507	
0	0	0	0	0	521	506	
1	0	0	0	0	514	508	
2	0	0	0	0	510	509	
3	0	0	0	0	507	509	
4	0	0	0	0	508	510	
5	0	0	0	0	513	512	
6	0	0	0	0	512	508	
7	0	0	0	0	512	511	
8	0	0	0	0	511	510	
9	0	0	0	0	507	511	
10	0	0	0	0	506	514	
11	0	0	0	0	497	511	
12	0	0	0	0	498	515	
13	0	0	0	0	500	515	
14	0	0	0	0	510	513	
15	0	0	0	0	519	515	
0	0	0	0	0	517	513	
1	0	0	0	0	522	512	
2	0	0	0	0	522	514	
3	0	0	0	0	514	511	
4	0	0	0	0	508	513	
5	0	0	0	0	501	513	
6	0	0	0	0	503	514	
7	0	0	0	0	504	512	
8	0	0	0	0	508	511	
9	0	0	0	0	514	514	
10	0	0	0	0	515	508	
11	0	0	0	0	518	512	
12	0	0	0	0	513	510	
13	0	0	0	0	512	510	
14	0	0	0	0	507	513	
15	0	0	0	0	502	509	
0	0	0	0	0	505	512	
1	0	0	0	0	512	511	
2	0	0	0	0	515	510	
3	0	0	0	0	517	511	
4	0	0	0	0	519	509	
5	0	0	0	0	527	509	
6	0	0	0	0	527	509	
7	0	0	0	0	510	510	
8	0	0	0	0	498	510	
9	0	0	0	0	502	512	
10	0	0	0	0	500	509	
11	0	0	0	0	493	510	
12	0	0	0	0	497	510	
13	0	0	0	0	507	512	
14	0	0	0	0	514	509	
15	0	0	0	0	520	511	
0	0	0	0	0	520	512	
1	0	0	0	0	515	511	
2	0	0	0	0	515	511	
3	0	0	0	0	515	510	
4	0	0	0	0	515	510	
5	0	0	0	0	519	511	
6	0	0	0	0	516	511	
7	0	0	0	0	515	511	
8	0	0	0	0	508	508	
9	0	0	0	0	512	512	
10	0	0	0	0	507	510	
11	0	0	0	0	506	511	
12	0	0	0	0	504	512	
13	0	0	0	0	500	510	
14	0	0	0	0	503	512	
15	0	0	0	0	502	512	
0	0	0	0	0	504	511	
1	0	0	0	0	509	511	
2	0	0	0	0	508	508	
3	0	0	0	0	511	511	
4	0	0	0	0	509	511	
5	0	0	0	0	512	511	
6	0	0	0	0	514	512	
7	0	0	0	0	518	512	
8	0	0	0	0	519	510	
9	0	0	0	0	517	509	
10	0	0	0	0	512	510	
11	0	0	0	0	507	511	
12	0	0	0	0	505	509	
13	0	0	0	0	509	512	
14	0	0	0	0	510	510	
15	0	0	0	0	507	510	
0	0	0	0	0	503	511	
1	0	0	0	0	500	510	
2	0	0	0	0	511	511	
3	0	0	0	0	509	509	
4	0	0	0	0	509	510	
5	0	0	0	0	504	510	
6	0	0	0	0	508	510	
7	0	0	0	0	514	510	
8	0	0	0	0	515	511	
9	0	0	0	0	520	513	
10	0	0	0	0	524	512	
11	0	0	0	0	524	512	
12	0	0	0	0	505	512	
13	0	0	0	0	502	510	
14	0	0	0	0	504	511	
15	0	0	0	0	513	511	
0	0	0	0	0	513	509	
1	0	0	0	0	516	511	
2	0	0	0	0	517	510	
3	0	0	0	0	517	511	
4	0	0	0	0	511	511	
5	0	0	0	0	504	510	
6	0	0	0	0	504	511	
7	0	0	0	0	505	511	
8	0	0	0	0	507	510	
9	0	0	0	0	510	513	
10	0	0	0	0	510	510	
11	0	0	0	0	519	513	
12	0	0	0	0	517	512	
13	0	0	0	0	517	511	
14	0	0	0	0	515	511	
15	0	0	0	0	509	510	
0	0	0	0	0	511	511	
1	0	0	0	0	510	511	
2	0	0	0	0	508	512	
3	0	0	0	0	510	511	
4	0	0	0	0	512	509	
5	0	0	0	0	520	510	
6	0	0	0	0	520	511	
7	0	0	0	0	515	513	
8	0	0	0	0	512	511	
9	0	0	0	0	499	509	
10	0	0	0	0	497	508	
11	0	0	0	0	500	511	
12	0	0	0	0	505	511	
13	0	0	0	0	507	508	
14	0	0	0	0	508	509	
15	0	0	0	0	511	512	
0	0	0	0	0	515	511	
1	0	0	0	0	520	510	
2	0	0	0	0	518	509	
3	0	0	0	0	512	508	
4	0	0	0	0	512	511	
5	0	0	0	0	513	510	
6	0	0	0	0	503	511	
7	0	0	0	0	496	511	
8	0	0	0	0	501	511	
9	0	0	0	0	507	511	
10	0	0	0	0	504	511	
11	0	0	0	0	507	511	
12	0	0	0	0	511	509	
13	0	0	0	0	519	511	
14	0	0	0	0	519	513	
15	0	0	0	0	518	512	
0	0	0	0	0	518	513	
1	0	0	0	0	516	510	
2	0	0	0	0	515	509	
3	0	0	0	0	518	512	
4	0	0	0	0	512	511	
5	0	0	0	0	510	512	
6	0	0	0	0	504	511	
7	0	0	0	0	504	511	
8	0	0	0	0	500	512	
9	0	0	0	0	499	508	
10	0	0	0	0	504	511	
11	0	0	0	0	511	510	
12	0	0	0	0	512	509	
13	0	0	0	0	515	513	
14	0	0	0	0	512	512	
15	0	0	0	0	510	511	
0	0	0	0	0	512	513	
1	0	0	0	0	503	510	
2	0	0	0	0	506	512	
3	0	0	0	0	504	513	
4	0	0	0	0	495	512	
5	0	0	0	0	494	511	
6	0	0	0	0	507	511	
7	0	0	0	0	521	511	
8	0	0	0	0	531	511	
9	0	0	0	0	535	511	
10	0	0	0	0	536	512	
11	0	0	0	0	534	511	
12	0	0	0	0	527	509	
13	0	0	0	0	512	511	
14	0	0	0	0	502	509	
15	0	0	0	0	503	510	
0	0	0	0	0	510	508	
1	0	0	0	0	511	510	
2	0	0	0	0	517	510	
3	0	0	0	0	518	511	
4	0	0	0	0	515	510	
5	0	0	0	0	502	510	
6	0	0	0	0	504	510	
7	0	0	0	0	503	510	
8	0	0	0	0	500	509	
9	0	0	0	0	504	512	
10	0	0	0	0	499	509	
11	0	0	0	0	500	512	
12	0	0	0	0	505	511	
13	0	0	0	0	511	509	
14	0	0	0	0	508	511	
15	0	0	0	0	501	507	
0	0	0	0	0	504	511	
1	0	0	0	0	504	511	
2	0	0	0	0	514	510	
3	0	0	0	0	516	511	
4	0	0	0	0	516	510	
5	0	0	0	0	521	512	
6	0	0	0	0	518	512	
7	0	0	0	0	510	513	
8	0	0	0	0	509	512	
9	0	0	0	0	507	511	
10	0	0	0	0	503	511	
11	0	0	0	0	504	508	
12	0	0	0	0	512	509	
13	0	0	0	0	516	509	
14	0	0	0	0	512	512	
15	0	0	0	0	511	511	
0	0	0	0	0	507	511	
1	0	0	0	0	505	512	
2	0	0	0	0	511	511	
3	0	0	0	0	509	514	
