# OpenSignals Text File Format. Version 1
# {"98:D3:71:FE:38:C0": {"position": 0, "device": "bitalino_rev", "device name": "98:D3:71:FE:38:C0", "device connection": "BTH98:D3:71:FE:38:C0", "sampling rate": 1000, "resolution": [4, 1, 1, 1, 1, 10, 10], "firmware version": 1282, "comments": "Intervalo extra\u00eddo: 0.0-35.0s. Original: una_asa_trapecio_vall.txt", "keywords": "", "mode": 0, "sync interval": 2, "date": "2026-6-5", "time": "15:47:57.489", "channels": [1, 2], "sensor": ["EMGBITREV", "EMGBITREV"], "label": ["A1", "A2"], "column": ["nSeq", "I1", "I2", "O1", "O2", "A1", "A2"], "special": [{}, {}], "digital IO": [0, 0, 1, 1]}}
# EndOfHeader
0	0	0	0	0	515	503
1	0	0	0	0	515	506
2	0	0	0	0	512	508
3	0	0	0	0	514	507
4	0	0	0	0	512	508
5	0	0	0	0	512	504
6	0	0	0	0	511	502
7	0	0	0	0	510	504
8	0	0	0	0	510	508
9	0	0	0	0	511	515
10	0	0	0	0	511	517
11	0	0	0	0	511	517
12	0	0	0	0	511	515
13	0	0	0	0	510	515
14	0	0	0	0	511	511
15	0	0	0	0	507	509
16	0	0	0	0	511	504
17	0	0	0	0	509	494
18	0	0	0	0	509	502
19	0	0	0	0	508	517
20	0	0	0	0	508	529
21	0	0	0	0	507	537
22	0	0	0	0	504	542
23	0	0	0	0	505	539
24	0	0	0	0	507	529
25	0	0	0	0	507	523
26	0	0	0	0	508	517
27	0	0	0	0	511	510
28	0	0	0	0	512	505
29	0	0	0	0	511	500
30	0	0	0	0	514	499
31	0	0	0	0	512	497
32	0	0	0	0	511	497
33	0	0	0	0	511	498
34	0	0	0	0	510	499
35	0	0	0	0	508	504
36	0	0	0	0	503	507
37	0	0	0	0	501	510
38	0	0	0	0	504	508
39	0	0	0	0	508	512
40	0	0	0	0	511	515
41	0	0	0	0	512	519
42	0	0	0	0	513	524
43	0	0	0	0	512	519
44	0	0	0	0	513	516
45	0	0	0	0	512	519
46	0	0	0	0	511	519
47	0	0	0	0	512	519
48	0	0	0	0	512	524
49	0	0	0	0	512	523
50	0	0	0	0	514	513
51	0	0	0	0	517	507
52	0	0	0	0	515	492
53	0	0	0	0	512	481
54	0	0	0	0	512	489
55	0	0	0	0	508	502
56	0	0	0	0	505	518
57	0	0	0	0	502	531
58	0	0	0	0	500	537
59	0	0	0	0	499	539
60	0	0	0	0	502	541
61	0	0	0	0	504	529
62	0	0	0	0	510	505
63	0	0	0	0	516	487
64	0	0	0	0	518	488
65	0	0	0	0	516	498
66	0	0	0	0	513	514
67	0	0	0	0	512	523
68	0	0	0	0	508	528
69	0	0	0	0	505	528
70	0	0	0	0	504	526
71	0	0	0	0	503	517
72	0	0	0	0	504	510
73	0	0	0	0	507	503
74	0	0	0	0	509	503
75	0	0	0	0	511	504
76	0	0	0	0	512	500
77	0	0	0	0	512	499
78	0	0	0	0	512	501
79	0	0	0	0	513	503
80	0	0	0	0	512	505
81	0	0	0	0	512	505
82	0	0	0	0	512	504
83	0	0	0	0	513	507
84	0	0	0	0	512	516
85	0	0	0	0	512	526
86	0	0	0	0	511	527
87	0	0	0	0	512	523
88	0	0	0	0	510	521
89	0	0	0	0	510	511
90	0	0	0	0	509	507
91	0	0	0	0	510	508
92	0	0	0	0	510	510
93	0	0	0	0	508	508
94	0	0	0	0	508	509
95	0	0	0	0	510	506
96	0	0	0	0	509	504
97	0	0	0	0	511	513
98	0	0	0	0	512	524
99	0	0	0	0	511	527
100	0	0	0	0	511	526
101	0	0	0	0	509	526
102	0	0	0	0	508	524
103	0	0	0	0	509	527
104	0	0	0	0	510	518
105	0	0	0	0	510	512
106	0	0	0	0	507	506
107	0	0	0	0	507	505
108	0	0	0	0	505	504
109	0	0	0	0	506	506
110	0	0	0	0	509	494
111	0	0	0	0	508	483
112	0	0	0	0	511	492
113	0	0	0	0	511	495
114	0	0	0	0	511	503
115	0	0	0	0	512	515
116	0	0	0	0	511	522
117	0	0	0	0	512	531
118	0	0	0	0	511	539
119	0	0	0	0	510	538
120	0	0	0	0	512	532
121	0	0	0	0	511	526
122	0	0	0	0	510	521
123	0	0	0	0	508	518
124	0	0	0	0	507	513
125	0	0	0	0	507	505
126	0	0	0	0	505	504
127	0	0	0	0	508	502
128	0	0	0	0	508	504
129	0	0	0	0	511	502
130	0	0	0	0	511	501
131	0	0	0	0	509	504
132	0	0	0	0	510	507
133	0	0	0	0	511	509
134	0	0	0	0	510	512
135	0	0	0	0	509	514
136	0	0	0	0	509	515
137	0	0	0	0	508	512
138	0	0	0	0	508	515
139	0	0	0	0	508	513
140	0	0	0	0	509	511
141	0	0	0	0	509	510
142	0	0	0	0	510	511
143	0	0	0	0	512	509
144	0	0	0	0	515	508
145	0	0	0	0	511	501
146	0	0	0	0	510	499
147	0	0	0	0	507	504
148	0	0	0	0	507	502
149	0	0	0	0	507	502
150	0	0	0	0	505	509
151	0	0	0	0	506	519
152	0	0	0	0	508	522
153	0	0	0	0	511	512
154	0	0	0	0	511	512
155	0	0	0	0	515	512
156	0	0	0	0	517	518
157	0	0	0	0	518	532
158	0	0	0	0	516	531
159	0	0	0	0	513	523
160	0	0	0	0	508	529
161	0	0	0	0	511	526
162	0	0	0	0	505	526
163	0	0	0	0	502	523
164	0	0	0	0	501	519
165	0	0	0	0	504	514
166	0	0	0	0	505	518
167	0	0	0	0	508	518
168	0	0	0	0	509	509
169	0	0	0	0	510	497
170	0	0	0	0	513	493
171	0	0	0	0	512	494
172	0	0	0	0	518	498
173	0	0	0	0	519	502
174	0	0	0	0	517	504
175	0	0	0	0	514	504
176	0	0	0	0	513	510
177	0	0	0	0	510	512
178	0	0	0	0	507	516
179	0	0	0	0	504	522
180	0	0	0	0	504	524
181	0	0	0	0	503	528
182	0	0	0	0	502	528
183	0	0	0	0	507	522
184	0	0	0	0	511	515
185	0	0	0	0	510	506
186	0	0	0	0	513	502
187	0	0	0	0	511	499
188	0	0	0	0	513	504
189	0	0	0	0	514	503
190	0	0	0	0	511	507
191	0	0	0	0	511	506
192	0	0	0	0	508	512
193	0	0	0	0	512	512
194	0	0	0	0	509	509
195	0	0	0	0	511	512
196	0	0	0	0	510	513
197	0	0	0	0	512	513
198	0	0	0	0	510	515
199	0	0	0	0	509	515
200	0	0	0	0	510	513
201	0	0	0	0	510	511
202	0	0	0	0	511	513
203	0	0	0	0	510	513
204	0	0	0	0	508	511
205	0	0	0	0	509	513
206	0	0	0	0	509	519
207	0	0	0	0	511	518
208	0	0	0	0	511	517
209	0	0	0	0	511	514
210	0	0	0	0	511	511
211	0	0	0	0	512	512
212	0	0	0	0	512	509
213	0	0	0	0	511	508
214	0	0	0	0	508	508
215	0	0	0	0	508	512
216	0	0	0	0	507	512
217	0	0	0	0	503	508
218	0	0	0	0	505	507
219	0	0	0	0	506	509
220	0	0	0	0	506	512
221	0	0	0	0	509	513
222	0	0	0	0	511	513
223	0	0	0	0	509	513
224	0	0	0	0	511	514
225	0	0	0	0	510	516
226	0	0	0	0	511	515
227	0	0	0	0	511	514
228	0	0	0	0	512	511
229	0	0	0	0	517	511
230	0	0	0	0	517	508
231	0	0	0	0	515	508
232	0	0	0	0	513	511
233	0	0	0	0	510	512
234	0	0	0	0	507	513
235	0	0	0	0	504	515
236	0	0	0	0	503	513
237	0	0	0	0	497	504
238	0	0	0	0	499	501
239	0	0	0	0	502	501
240	0	0	0	0	506	504
241	0	0	0	0	505	509
242	0	0	0	0	506	517
243	0	0	0	0	509	521
244	0	0	0	0	510	526
245	0	0	0	0	514	515
246	0	0	0	0	521	506
247	0	0	0	0	523	515
248	0	0	0	0	521	526
249	0	0	0	0	519	532
250	0	0	0	0	515	530
251	0	0	0	0	508	531
252	0	0	0	0	504	529
253	0	0	0	0	499	515
254	0	0	0	0	496	508
255	0	0	0	0	497	505
256	0	0	0	0	499	502
257	0	0	0	0	505	496
258	0	0	0	0	511	497
259	0	0	0	0	510	505
260	0	0	0	0	513	511
261	0	0	0	0	514	516
262	0	0	0	0	513	509
263	0	0	0	0	513	500
264	0	0	0	0	514	502
265	0	0	0	0	512	510
266	0	0	0	0	513	519
267	0	0	0	0	513	525
268	0	0	0	0	513	527
269	0	0	0	0	513	531
270	0	0	0	0	512	529
271	0	0	0	0	511	524
272	0	0	0	0	509	517
273	0	0	0	0	507	512
274	0	0	0	0	506	505
275	0	0	0	0	505	501
276	0	0	0	0	505	502
277	0	0	0	0	507	500
278	0	0	0	0	508	498
279	0	0	0	0	508	499
280	0	0	0	0	511	503
281	0	0	0	0	513	504
282	0	0	0	0	510	508
283	0	0	0	0	510	509
284	0	0	0	0	508	515
285	0	0	0	0	507	520
286	0	0	0	0	507	524
287	0	0	0	0	507	528
288	0	0	0	0	508	523
289	0	0	0	0	509	519
290	0	0	0	0	513	507
291	0	0	0	0	512	501
292	0	0	0	0	515	502
293	0	0	0	0	515	511
294	0	0	0	0	512	514
295	0	0	0	0	510	515
296	0	0	0	0	507	512
297	0	0	0	0	507	511
298	0	0	0	0	506	512
299	0	0	0	0	505	510
300	0	0	0	0	510	507
301	0	0	0	0	510	505
302	0	0	0	0	511	509
303	0	0	0	0	510	513
304	0	0	0	0	511	515
305	0	0	0	0	511	519
306	0	0	0	0	512	524
307	0	0	0	0	512	524
308	0	0	0	0	512	519
309	0	0	0	0	513	515
310	0	0	0	0	515	513
311	0	0	0	0	512	512
312	0	0	0	0	511	513
313	0	0	0	0	510	510
314	0	0	0	0	511	510
315	0	0	0	0	509	511
316	0	0	0	0	508	510
317	0	0	0	0	506	500
318	0	0	0	0	504	504
319	0	0	0	0	507	512
320	0	0	0	0	509	519
321	0	0	0	0	508	523
322	0	0	0	0	509	525
323	0	0	0	0	511	524
324	0	0	0	0	512	524
325	0	0	0	0	511	523
326	0	0	0	0	511	516
327	0	0	0	0	507	511
328	0	0	0	0	507	497
329	0	0	0	0	506	492
330	0	0	0	0	503	497
331	0	0	0	0	503	501
332	0	0	0	0	504	500
333	0	0	0	0	506	492
334	0	0	0	0	509	494
335	0	0	0	0	510	503
336	0	0	0	0	512	505
337	0	0	0	0	515	512
338	0	0	0	0	515	517
339	0	0	0	0	514	522
340	0	0	0	0	512	529
341	0	0	0	0	510	528
342	0	0	0	0	507	515
343	0	0	0	0	510	502
344	0	0	0	0	509	488
345	0	0	0	0	508	483
346	0	0	0	0	510	483
347	0	0	0	0	510	496
348	0	0	0	0	511	519
349	0	0	0	0	511	535
350	0	0	0	0	508	549
351	0	0	0	0	509	552
352	0	0	0	0	511	551
353	0	0	0	0	512	543
354	0	0	0	0	512	532
355	0	0	0	0	512	514
356	0	0	0	0	511	497
357	0	0	0	0	512	488
358	0	0	0	0	514	493
359	0	0	0	0	512	498
360	0	0	0	0	510	506
361	0	0	0	0	510	514
362	0	0	0	0	510	517
363	0	0	0	0	508	521
364	0	0	0	0	510	520
365	0	0	0	0	508	519
366	0	0	0	0	508	514
367	0	0	0	0	509	513
368	0	0	0	0	509	513
369	0	0	0	0	508	511
370	0	0	0	0	505	509
371	0	0	0	0	508	506
372	0	0	0	0	509	507
373	0	0	0	0	508	504
374	0	0	0	0	509	499
375	0	0	0	0	512	492
376	0	0	0	0	511	492
377	0	0	0	0	510	500
378	0	0	0	0	509	513
379	0	0	0	0	508	523
380	0	0	0	0	507	525
381	0	0	0	0	505	524
382	0	0	0	0	503	527
383	0	0	0	0	504	526
384	0	0	0	0	508	521
385	0	0	0	0	512	515
386	0	0	0	0	512	514
387	0	0	0	0	513	514
388	0	0	0	0	515	513
389	0	0	0	0	513	504
390	0	0	0	0	515	491
391	0	0	0	0	513	489
392	0	0	0	0	516	491
393	0	0	0	0	518	497
394	0	0	0	0	519	512
395	0	0	0	0	519	526
396	0	0	0	0	516	538
397	0	0	0	0	511	547
398	0	0	0	0	503	546
399	0	0	0	0	498	537
400	0	0	0	0	497	524
401	0	0	0	0	496	496
402	0	0	0	0	494	478
403	0	0	0	0	491	483
404	0	0	0	0	497	496
405	0	0	0	0	503	510
406	0	0	0	0	508	517
407	0	0	0	0	510	519
408	0	0	0	0	512	517
409	0	0	0	0	512	518
410	0	0	0	0	513	523
411	0	0	0	0	515	519
412	0	0	0	0	515	513
413	0	0	0	0	515	515
414	0	0	0	0	515	520
415	0	0	0	0	515	521
416	0	0	0	0	514	524
417	0	0	0	0	515	517
418	0	0	0	0	514	512
419	0	0	0	0	516	509
420	0	0	0	0	518	504
421	0	0	0	0	516	505
422	0	0	0	0	512	508
423	0	0	0	0	510	505
424	0	0	0	0	508	505
425	0	0	0	0	502	506
426	0	0	0	0	501	508
427	0	0	0	0	499	508
428	0	0	0	0	502	507
429	0	0	0	0	504	510
430	0	0	0	0	506	510
431	0	0	0	0	509	510
432	0	0	0	0	512	511
433	0	0	0	0	513	511
434	0	0	0	0	513	512
435	0	0	0	0	513	510
436	0	0	0	0	512	510
437	0	0	0	0	510	508
438	0	0	0	0	512	505
439	0	0	0	0	512	504
440	0	0	0	0	513	492
441	0	0	0	0	515	477
442	0	0	0	0	511	469
443	0	0	0	0	511	479
444	0	0	0	0	508	509
445	0	0	0	0	508	547
446	0	0	0	0	508	572
447	0	0	0	0	509	579
448	0	0	0	0	508	582
449	0	0	0	0	508	573
450	0	0	0	0	510	550
451	0	0	0	0	512	523
452	0	0	0	0	512	504
453	0	0	0	0	513	492
454	0	0	0	0	512	490
455	0	0	0	0	510	491
456	0	0	0	0	510	495
457	0	0	0	0	506	496
458	0	0	0	0	507	499
459	0	0	0	0	507	501
460	0	0	0	0	506	502
461	0	0	0	0	506	504
462	0	0	0	0	508	503
463	0	0	0	0	511	506
464	0	0	0	0	513	506
465	0	0	0	0	516	504
466	0	0	0	0	515	498
467	0	0	0	0	515	480
468	0	0	0	0	511	480
469	0	0	0	0	510	493
470	0	0	0	0	509	509
471	0	0	0	0	509	514
472	0	0	0	0	505	512
473	0	0	0	0	505	524
474	0	0	0	0	504	545
475	0	0	0	0	505	563
476	0	0	0	0	505	562
477	0	0	0	0	506	551
478	0	0	0	0	508	540
479	0	0	0	0	511	533
480	0	0	0	0	515	522
481	0	0	0	0	517	511
482	0	0	0	0	519	500
483	0	0	0	0	517	495
484	0	0	0	0	514	494
485	0	0	0	0	507	497
486	0	0	0	0	504	496
487	0	0	0	0	499	498
488	0	0	0	0	494	500
489	0	0	0	0	493	504
490	0	0	0	0	492	506
491	0	0	0	0	493	509
492	0	0	0	0	499	511
493	0	0	0	0	505	508
494	0	0	0	0	510	511
495	0	0	0	0	515	510
496	0	0	0	0	515	509
497	0	0	0	0	519	510
498	0	0	0	0	517	509
499	0	0	0	0	518	511
500	0	0	0	0	518	508
501	0	0	0	0	521	505
502	0	0	0	0	521	505
503	0	0	0	0	520	500
504	0	0	0	0	515	497
505	0	0	0	0	516	492
506	0	0	0	0	512	506
507	0	0	0	0	509	519
508	0	0	0	0	506	529
509	0	0	0	0	506	539
510	0	0	0	0	505	540
511	0	0	0	0	505	532
512	0	0	0	0	507	523
513	0	0	0	0	507	519
514	0	0	0	0	507	516
515	0	0	0	0	508	515
516	0	0	0	0	512	519
517	0	0	0	0	512	519
518	0	0	0	0	513	521
519	0	0	0	0	513	527
520	0	0	0	0	514	519
521	0	0	0	0	512	512
522	0	0	0	0	511	505
523	0	0	0	0	508	497
524	0	0	0	0	510	489
525	0	0	0	0	508	487
526	0	0	0	0	510	494
527	0	0	0	0	511	502
528	0	0	0	0	513	505
529	0	0	0	0	511	510
530	0	0	0	0	514	516
531	0	0	0	0	515	524
532	0	0	0	0	512	528
533	0	0	0	0	511	527
534	0	0	0	0	507	526
535	0	0	0	0	505	521
536	0	0	0	0	503	516
537	0	0	0	0	504	512
538	0	0	0	0	509	511
539	0	0	0	0	508	506
540	0	0	0	0	507	506
541	0	0	0	0	509	505
542	0	0	0	0	510	503
543	0	0	0	0	507	495
544	0	0	0	0	508	494
545	0	0	0	0	507	492
546	0	0	0	0	504	504
547	0	0	0	0	503	513
548	0	0	0	0	504	519
549	0	0	0	0	505	527
550	0	0	0	0	508	535
551	0	0	0	0	511	534
552	0	0	0	0	511	531
553	0	0	0	0	512	524
554	0	0	0	0	513	519
555	0	0	0	0	513	513
556	0	0	0	0	513	508
557	0	0	0	0	512	504
558	0	0	0	0	512	502
559	0	0	0	0	511	504
560	0	0	0	0	511	504
561	0	0	0	0	511	504
562	0	0	0	0	513	503
563	0	0	0	0	512	498
564	0	0	0	0	511	478
565	0	0	0	0	508	477
566	0	0	0	0	508	485
567	0	0	0	0	506	490
568	0	0	0	0	506	505
569	0	0	0	0	504	529
570	0	0	0	0	506	549
571	0	0	0	0	505	567
572	0	0	0	0	506	578
573	0	0	0	0	509	567
574	0	0	0	0	512	551
575	0	0	0	0	510	535
576	0	0	0	0	511	519
577	0	0	0	0	513	505
578	0	0	0	0	514	497
579	0	0	0	0	514	494
580	0	0	0	0	511	492
581	0	0	0	0	511	492
582	0	0	0	0	512	492
583	0	0	0	0	510	494
584	0	0	0	0	510	497
585	0	0	0	0	510	498
586	0	0	0	0	509	504
587	0	0	0	0	511	505
588	0	0	0	0	509	502
589	0	0	0	0	511	505
590	0	0	0	0	515	507
591	0	0	0	0	512	516
592	0	0	0	0	511	518
593	0	0	0	0	511	525
594	0	0	0	0	512	527
595	0	0	0	0	512	524
596	0	0	0	0	508	522
597	0	0	0	0	507	520
598	0	0	0	0	504	516
599	0	0	0	0	504	512
600	0	0	0	0	507	511
601	0	0	0	0	508	510
602	0	0	0	0	507	507
603	0	0	0	0	505	504
604	0	0	0	0	507	508
605	0	0	0	0	508	508
606	0	0	0	0	506	507
607	0	0	0	0	509	502
608	0	0	0	0	510	506
609	0	0	0	0	508	512
610	0	0	0	0	509	512
611	0	0	0	0	511	512
612	0	0	0	0	511	515
613	0	0	0	0	511	515
614	0	0	0	0	511	511
615	0	0	0	0	511	503
616	0	0	0	0	512	500
617	0	0	0	0	515	499
618	0	0	0	0	514	507
619	0	0	0	0	516	517
620	0	0	0	0	515	524
621	0	0	0	0	515	527
622	0	0	0	0	516	529
623	0	0	0	0	512	530
624	0	0	0	0	508	527
625	0	0	0	0	506	521
626	0	0	0	0	499	508
627	0	0	0	0	497	503
628	0	0	0	0	499	503
629	0	0	0	0	498	504
630	0	0	0	0	500	505
631	0	0	0	0	505	503
632	0	0	0	0	504	505
633	0	0	0	0	509	514
634	0	0	0	0	512	522
635	0	0	0	0	515	530
636	0	0	0	0	516	527
637	0	0	0	0	515	518
638	0	0	0	0	513	521
639	0	0	0	0	514	521
640	0	0	0	0	512	522
641	0	0	0	0	512	519
642	0	0	0	0	512	513
643	0	0	0	0	507	511
644	0	0	0	0	510	511
645	0	0	0	0	507	508
646	0	0	0	0	508	510
647	0	0	0	0	508	509
648	0	0	0	0	509	504
649	0	0	0	0	507	501
650	0	0	0	0	508	499
651	0	0	0	0	508	499
652	0	0	0	0	510	502
653	0	0	0	0	508	504
654	0	0	0	0	508	505
655	0	0	0	0	510	508
656	0	0	0	0	511	511
657	0	0	0	0	510	514
658	0	0	0	0	512	518
659	0	0	0	0	512	522
660	0	0	0	0	514	521
661	0	0	0	0	512	518
662	0	0	0	0	512	516
663	0	0	0	0	511	513
664	0	0	0	0	513	507
665	0	0	0	0	512	505
666	0	0	0	0	511	506
667	0	0	0	0	508	505
668	0	0	0	0	509	509
669	0	0	0	0	508	513
670	0	0	0	0	508	516
671	0	0	0	0	508	519
672	0	0	0	0	508	523
673	0	0	0	0	508	521
674	0	0	0	0	508	517
675	0	0	0	0	509	514
676	0	0	0	0	511	507
677	0	0	0	0	509	504
678	0	0	0	0	510	508
679	0	0	0	0	508	508
680	0	0	0	0	510	504
681	0	0	0	0	507	503
682	0	0	0	0	508	506
683	0	0	0	0	508	515
684	0	0	0	0	509	521
685	0	0	0	0	511	526
686	0	0	0	0	509	530
687	0	0	0	0	510	528
688	0	0	0	0	510	531
689	0	0	0	0	508	524
690	0	0	0	0	511	516
691	0	0	0	0	510	511
692	0	0	0	0	511	505
693	0	0	0	0	511	504
694	0	0	0	0	509	504
695	0	0	0	0	510	505
696	0	0	0	0	510	507
697	0	0	0	0	509	508
698	0	0	0	0	510	507
699	0	0	0	0	512	509
700	0	0	0	0	512	509
701	0	0	0	0	512	506
702	0	0	0	0	510	508
703	0	0	0	0	510	508
704	0	0	0	0	509	509
705	0	0	0	0	509	508
706	0	0	0	0	509	510
707	0	0	0	0	507	512
708	0	0	0	0	508	513
709	0	0	0	0	509	517
710	0	0	0	0	512	513
711	0	0	0	0	511	510
712	0	0	0	0	509	507
713	0	0	0	0	507	508
714	0	0	0	0	508	508
715	0	0	0	0	506	492
716	0	0	0	0	505	486
717	0	0	0	0	504	497
718	0	0	0	0	505	523
719	0	0	0	0	507	542
720	0	0	0	0	509	558
721	0	0	0	0	509	554
722	0	0	0	0	512	536
723	0	0	0	0	518	524
724	0	0	0	0	519	524
725	0	0	0	0	517	517
726	0	0	0	0	513	512
727	0	0	0	0	513	505
728	0	0	0	0	511	505
729	0	0	0	0	507	507
730	0	0	0	0	506	506
731	0	0	0	0	504	502
732	0	0	0	0	505	500
733	0	0	0	0	508	498
734	0	0	0	0	512	499
735	0	0	0	0	514	504
736	0	0	0	0	515	504
737	0	0	0	0	519	502
738	0	0	0	0	517	506
739	0	0	0	0	514	504
740	0	0	0	0	509	505
741	0	0	0	0	502	513
742	0	0	0	0	499	520
743	0	0	0	0	499	520
744	0	0	0	0	499	531
745	0	0	0	0	499	535
746	0	0	0	0	503	531
747	0	0	0	0	504	525
748	0	0	0	0	509	512
749	0	0	0	0	513	502
750	0	0	0	0	519	502
751	0	0	0	0	520	504
752	0	0	0	0	518	500
753	0	0	0	0	515	504
754	0	0	0	0	510	509
755	0	0	0	0	510	508
756	0	0	0	0	508	504
757	0	0	0	0	504	503
758	0	0	0	0	500	508
759	0	0	0	0	497	514
760	0	0	0	0	495	516
761	0	0	0	0	498	516
762	0	0	0	0	504	512
763	0	0	0	0	511	512
764	0	0	0	0	513	517
765	0	0	0	0	519	522
766	0	0	0	0	515	521
767	0	0	0	0	514	520
768	0	0	0	0	513	520
769	0	0	0	0	512	518
770	0	0	0	0	515	514
771	0	0	0	0	515	511
772	0	0	0	0	513	507
773	0	0	0	0	514	501
774	0	0	0	0	516	499
775	0	0	0	0	524	500
776	0	0	0	0	531	500
777	0	0	0	0	531	508
778	0	0	0	0	526	519
779	0	0	0	0	518	524
780	0	0	0	0	510	526
781	0	0	0	0	503	526
782	0	0	0	0	492	524
783	0	0	0	0	484	518
784	0	0	0	0	482	507
785	0	0	0	0	482	503
786	0	0	0	0	484	505
787	0	0	0	0	488	511
788	0	0	0	0	499	514
789	0	0	0	0	505	515
790	0	0	0	0	508	513
791	0	0	0	0	513	510
792	0	0	0	0	518	504
793	0	0	0	0	519	503
794	0	0	0	0	519	492
795	0	0	0	0	518	477
796	0	0	0	0	517	485
797	0	0	0	0	513	508
798	0	0	0	0	512	528
799	0	0	0	0	516	542
800	0	0	0	0	513	540
801	0	0	0	0	513	538
802	0	0	0	0	512	539
803	0	0	0	0	513	533
804	0	0	0	0	513	524
805	0	0	0	0	515	505
806	0	0	0	0	511	499
807	0	0	0	0	511	505
808	0	0	0	0	511	508
809	0	0	0	0	510	508
810	0	0	0	0	510	504
811	0	0	0	0	510	502
812	0	0	0	0	508	508
813	0	0	0	0	509	513
814	0	0	0	0	508	519
815	0	0	0	0	507	521
816	0	0	0	0	508	513
817	0	0	0	0	509	513
818	0	0	0	0	511	511
819	0	0	0	0	510	500
820	0	0	0	0	511	497
821	0	0	0	0	511	501
822	0	0	0	0	511	507
823	0	0	0	0	510	512
824	0	0	0	0	508	512
825	0	0	0	0	509	515
826	0	0	0	0	510	515
827	0	0	0	0	511	518
828	0	0	0	0	511	524
829	0	0	0	0	509	527
830	0	0	0	0	510	527
831	0	0	0	0	510	522
832	0	0	0	0	508	511
833	0	0	0	0	510	500
834	0	0	0	0	508	499
835	0	0	0	0	506	500
836	0	0	0	0	509	505
837	0	0	0	0	509	510
838	0	0	0	0	510	513
839	0	0	0	0	511	516
840	0	0	0	0	511	519
841	0	0	0	0	509	518
842	0	0	0	0	510	518
843	0	0	0	0	511	512
844	0	0	0	0	508	510
845	0	0	0	0	510	504
846	0	0	0	0	509	504
847	0	0	0	0	508	501
848	0	0	0	0	508	501
849	0	0	0	0	511	503
850	0	0	0	0	509	510
851	0	0	0	0	511	512
852	0	0	0	0	512	518
853	0	0	0	0	511	527
854	0	0	0	0	510	531
855	0	0	0	0	511	528
856	0	0	0	0	510	526
857	0	0	0	0	509	523
858	0	0	0	0	509	512
859	0	0	0	0	509	502
860	0	0	0	0	511	484
861	0	0	0	0	511	490
862	0	0	0	0	509	499
863	0	0	0	0	510	512
864	0	0	0	0	510	524
865	0	0	0	0	511	526
866	0	0	0	0	510	528
867	0	0	0	0	507	527
868	0	0	0	0	508	519
869	0	0	0	0	506	512
870	0	0	0	0	505	504
871	0	0	0	0	505	504
872	0	0	0	0	507	502
873	0	0	0	0	509	507
874	0	0	0	0	508	510
875	0	0	0	0	511	512
876	0	0	0	0	511	516
877	0	0	0	0	511	511
878	0	0	0	0	510	508
879	0	0	0	0	508	513
880	0	0	0	0	509	515
881	0	0	0	0	508	515
882	0	0	0	0	510	515
883	0	0	0	0	515	511
884	0	0	0	0	520	500
885	0	0	0	0	519	501
886	0	0	0	0	519	507
887	0	0	0	0	515	512
888	0	0	0	0	514	511
889	0	0	0	0	508	497
890	0	0	0	0	504	481
891	0	0	0	0	499	469
892	0	0	0	0	496	476
893	0	0	0	0	493	504
894	0	0	0	0	494	539
895	0	0	0	0	499	563
896	0	0	0	0	505	575
897	0	0	0	0	510	577
898	0	0	0	0	515	577
899	0	0	0	0	514	566
900	0	0	0	0	515	544
901	0	0	0	0	515	514
902	0	0	0	0	514	493
903	0	0	0	0	515	486
904	0	0	0	0	512	484
905	0	0	0	0	514	486
906	0	0	0	0	515	488
907	0	0	0	0	512	493
908	0	0	0	0	512	495
909	0	0	0	0	512	499
910	0	0	0	0	510	502
911	0	0	0	0	511	504
912	0	0	0	0	515	504
913	0	0	0	0	510	509
914	0	0	0	0	510	509
915	0	0	0	0	510	505
916	0	0	0	0	511	501
917	0	0	0	0	508	495
918	0	0	0	0	510	498
919	0	0	0	0	511	507
920	0	0	0	0	512	513
921	0	0	0	0	512	520
922	0	0	0	0	511	526
923	0	0	0	0	512	530
924	0	0	0	0	508	527
925	0	0	0	0	507	524
926	0	0	0	0	503	519
927	0	0	0	0	504	516
928	0	0	0	0	502	515
929	0	0	0	0	500	513
930	0	0	0	0	506	509
931	0	0	0	0	508	510
932	0	0	0	0	511	512
933	0	0	0	0	512	515
934	0	0	0	0	512	514
935	0	0	0	0	515	515
936	0	0	0	0	518	514
937	0	0	0	0	517	513
938	0	0	0	0	519	514
939	0	0	0	0	519	512
940	0	0	0	0	518	510
941	0	0	0	0	514	510
942	0	0	0	0	510	509
943	0	0	0	0	506	509
944	0	0	0	0	502	511
945	0	0	0	0	501	509
946	0	0	0	0	501	499
947	0	0	0	0	501	488
948	0	0	0	0	500	480
949	0	0	0	0	504	480
950	0	0	0	0	508	479
951	0	0	0	0	510	501
952	0	0	0	0	508	524
953	0	0	0	0	511	544
954	0	0	0	0	511	559
955	0	0	0	0	514	563
956	0	0	0	0	515	553
957	0	0	0	0	512	547
958	0	0	0	0	511	536
959	0	0	0	0	506	524
960	0	0	0	0	505	516
961	0	0	0	0	505	512
962	0	0	0	0	506	505
963	0	0	0	0	506	495
964	0	0	0	0	506	493
965	0	0	0	0	508	486
966	0	0	0	0	512	487
967	0	0	0	0	516	484
968	0	0	0	0	520	495
969	0	0	0	0	521	508
970	0	0	0	0	518	517
971	0	0	0	0	513	531
972	0	0	0	0	509	541
973	0	0	0	0	505	538
974	0	0	0	0	502	534
975	0	0	0	0	502	523
976	0	0	0	0	498	520
977	0	0	0	0	495	513
978	0	0	0	0	499	507
979	0	0	0	0	504	500
980	0	0	0	0	510	502
981	0	0	0	0	514	499
982	0	0	0	0	514	502
983	0	0	0	0	515	503
984	0	0	0	0	514	497
985	0	0	0	0	515	495
986	0	0	0	0	516	500
987	0	0	0	0	515	515
988	0	0	0	0	513	522
989	0	0	0	0	513	527
990	0	0	0	0	513	530
991	0	0	0	0	511	530
992	0	0	0	0	512	524
993	0	0	0	0	510	520
994	0	0	0	0	507	518
995	0	0	0	0	507	512
996	0	0	0	0	507	509
997	0	0	0	0	506	506
998	0	0	0	0	508	504
999	0	0	0	0	510	504
1000	0	0	0	0	508	504
1001	0	0	0	0	510	501
1002	0	0	0	0	508	503
1003	0	0	0	0	510	506
1004	0	0	0	0	510	503
1005	0	0	0	0	509	502
1006	0	0	0	0	510	503
1007	0	0	0	0	510	507
1008	0	0	0	0	510	512
1009	0	0	0	0	508	515
1010	0	0	0	0	510	515
1011	0	0	0	0	512	512
1012	0	0	0	0	511	507
1013	0	0	0	0	510	506
1014	0	0	0	0	511	509
1015	0	0	0	0	511	510
1016	0	0	0	0	509	510
1017	0	0	0	0	513	513
1018	0	0	0	0	510	515
1019	0	0	0	0	510	511
1020	0	0	0	0	509	511
1021	0	0	0	0	509	518
1022	0	0	0	0	509	520
1023	0	0	0	0	509	523
1024	0	0	0	0	505	523
1025	0	0	0	0	509	520
1026	0	0	0	0	511	521
1027	0	0	0	0	510	519
1028	0	0	0	0	508	516
1029	0	0	0	0	509	508
1030	0	0	0	0	509	504
1031	0	0	0	0	509	507
1032	0	0	0	0	510	513
1033	0	0	0	0	508	520
1034	0	0	0	0	508	520
1035	0	0	0	0	508	523
1036	0	0	0	0	510	523
1037	0	0	0	0	511	526
1038	0	0	0	0	512	520
1039	0	0	0	0	511	511
1040	0	0	0	0	510	506
1041	0	0	0	0	512	497
1042	0	0	0	0	508	494
1043	0	0	0	0	508	496
1044	0	0	0	0	509	499
1045	0	0	0	0	509	499
1046	0	0	0	0	508	505
1047	0	0	0	0	509	512
1048	0	0	0	0	510	522
1049	0	0	0	0	511	527
1050	0	0	0	0	511	527
1051	0	0	0	0	510	523
1052	0	0	0	0	512	522
1053	0	0	0	0	511	509
1054	0	0	0	0	509	499
1055	0	0	0	0	510	491
1056	0	0	0	0	512	497
1057	0	0	0	0	511	499
1058	0	0	0	0	511	508
1059	0	0	0	0	510	518
1060	0	0	0	0	508	529
1061	0	0	0	0	510	535
1062	0	0	0	0	506	526
1063	0	0	0	0	508	515
1064	0	0	0	0	509	507
1065	0	0	0	0	510	510
1066	0	0	0	0	509	510
1067	0	0	0	0	512	507
1068	0	0	0	0	510	495
1069	0	0	0	0	510	499
1070	0	0	0	0	510	508
1071	0	0	0	0	509	523
1072	0	0	0	0	509	531
1073	0	0	0	0	508	534
1074	0	0	0	0	510	521
1075	0	0	0	0	509	510
1076	0	0	0	0	509	515
1077	0	0	0	0	510	525
1078	0	0	0	0	510	524
1079	0	0	0	0	509	518
1080	0	0	0	0	511	515
1081	0	0	0	0	511	516
1082	0	0	0	0	513	518
1083	0	0	0	0	512	517
1084	0	0	0	0	509	517
1085	0	0	0	0	511	513
1086	0	0	0	0	511	507
1087	0	0	0	0	511	507
1088	0	0	0	0	511	503
1089	0	0	0	0	512	503
1090	0	0	0	0	513	499
1091	0	0	0	0	511	503
1092	0	0	0	0	513	499
1093	0	0	0	0	513	500
1094	0	0	0	0	511	505
1095	0	0	0	0	508	505
1096	0	0	0	0	505	504
1097	0	0	0	0	504	504
1098	0	0	0	0	506	505
1099	0	0	0	0	504	510
1100	0	0	0	0	505	514
1101	0	0	0	0	506	517
1102	0	0	0	0	507	519
1103	0	0	0	0	509	523
1104	0	0	0	0	510	521
1105	0	0	0	0	511	516
1106	0	0	0	0	512	514
1107	0	0	0	0	511	512
1108	0	0	0	0	510	515
1109	0	0	0	0	508	519
1110	0	0	0	0	509	515
1111	0	0	0	0	510	513
1112	0	0	0	0	513	515
1113	0	0	0	0	515	512
1114	0	0	0	0	515	502
1115	0	0	0	0	515	490
1116	0	0	0	0	513	487
1117	0	0	0	0	514	492
1118	0	0	0	0	516	508
1119	0	0	0	0	514	523
1120	0	0	0	0	513	529
1121	0	0	0	0	514	534
1122	0	0	0	0	512	537
1123	0	0	0	0	509	539
1124	0	0	0	0	505	537
1125	0	0	0	0	503	528
1126	0	0	0	0	501	515
1127	0	0	0	0	496	510
1128	0	0	0	0	497	504
1129	0	0	0	0	497	499
1130	0	0	0	0	499	478
1131	0	0	0	0	504	468
1132	0	0	0	0	507	467
1133	0	0	0	0	509	474
1134	0	0	0	0	513	488
1135	0	0	0	0	514	517
1136	0	0	0	0	513	546
1137	0	0	0	0	512	563
1138	0	0	0	0	511	572
1139	0	0	0	0	512	567
1140	0	0	0	0	514	548
1141	0	0	0	0	512	527
1142	0	0	0	0	512	511
1143	0	0	0	0	513	498
1144	0	0	0	0	512	493
1145	0	0	0	0	514	495
1146	0	0	0	0	513	495
1147	0	0	0	0	511	498
1148	0	0	0	0	512	503
1149	0	0	0	0	511	504
1150	0	0	0	0	508	505
1151	0	0	0	0	509	508
1152	0	0	0	0	506	507
1153	0	0	0	0	506	504
1154	0	0	0	0	504	503
1155	0	0	0	0	507	503
1156	0	0	0	0	505	505
1157	0	0	0	0	507	503
1158	0	0	0	0	511	508
1159	0	0	0	0	509	513
1160	0	0	0	0	508	517
1161	0	0	0	0	510	522
1162	0	0	0	0	511	522
1163	0	0	0	0	511	522
1164	0	0	0	0	512	519
1165	0	0	0	0	508	518
1166	0	0	0	0	511	514
1167	0	0	0	0	512	511
1168	0	0	0	0	512	509
1169	0	0	0	0	511	506
1170	0	0	0	0	511	504
1171	0	0	0	0	512	506
1172	0	0	0	0	512	507
1173	0	0	0	0	512	505
1174	0	0	0	0	511	501
1175	0	0	0	0	513	504
1176	0	0	0	0	510	512
1177	0	0	0	0	510	515
1178	0	0	0	0	512	521
1179	0	0	0	0	513	524
1180	0	0	0	0	513	527
1181	0	0	0	0	511	530
1182	0	0	0	0	508	523
1183	0	0	0	0	508	505
1184	0	0	0	0	504	503
1185	0	0	0	0	501	508
1186	0	0	0	0	499	514
1187	0	0	0	0	499	520
1188	0	0	0	0	500	524
1189	0	0	0	0	503	526
1190	0	0	0	0	505	525
1191	0	0	0	0	510	517
1192	0	0	0	0	511	513
1193	0	0	0	0	513	508
1194	0	0	0	0	515	502
1195	0	0	0	0	514	499
1196	0	0	0	0	512	499
1197	0	0	0	0	512	501
1198	0	0	0	0	515	500
1199	0	0	0	0	511	500
1200	0	0	0	0	514	504
1201	0	0	0	0	511	501
1202	0	0	0	0	510	509
1203	0	0	0	0	509	514
1204	0	0	0	0	507	516
1205	0	0	0	0	508	524
1206	0	0	0	0	510	527
1207	0	0	0	0	510	525
1208	0	0	0	0	515	528
1209	0	0	0	0	518	528
1210	0	0	0	0	516	521
1211	0	0	0	0	515	516
1212	0	0	0	0	511	516
1213	0	0	0	0	508	512
1214	0	0	0	0	503	512
1215	0	0	0	0	500	504
1216	0	0	0	0	501	495
1217	0	0	0	0	504	501
1218	0	0	0	0	505	510
1219	0	0	0	0	506	515
1220	0	0	0	0	509	517
1221	0	0	0	0	510	518
1222	0	0	0	0	509	512
1223	0	0	0	0	511	511
1224	0	0	0	0	510	507
1225	0	0	0	0	505	502
1226	0	0	0	0	505	503
1227	0	0	0	0	506	504
1228	0	0	0	0	507	507
1229	0	0	0	0	510	513
1230	0	0	0	0	512	515
1231	0	0	0	0	511	515
1232	0	0	0	0	512	515
1233	0	0	0	0	513	505
1234	0	0	0	0	511	493
1235	0	0	0	0	512	492
1236	0	0	0	0	510	494
1237	0	0	0	0	511	497
1238	0	0	0	0	514	500
1239	0	0	0	0	516	504
1240	0	0	0	0	518	519
1241	0	0	0	0	517	530
1242	0	0	0	0	515	543
1243	0	0	0	0	512	554
1244	0	0	0	0	508	551
1245	0	0	0	0	505	550
1246	0	0	0	0	502	543
1247	0	0	0	0	499	531
1248	0	0	0	0	500	517
1249	0	0	0	0	502	496
1250	0	0	0	0	503	480
1251	0	0	0	0	504	478
1252	0	0	0	0	506	485
1253	0	0	0	0	513	492
1254	0	0	0	0	523	492
1255	0	0	0	0	526	503
1256	0	0	0	0	525	520
1257	0	0	0	0	519	536
1258	0	0	0	0	514	543
1259	0	0	0	0	508	538
1260	0	0	0	0	502	533
1261	0	0	0	0	497	527
1262	0	0	0	0	496	519
1263	0	0	0	0	495	515
1264	0	0	0	0	495	503
1265	0	0	0	0	502	497
1266	0	0	0	0	506	492
1267	0	0	0	0	511	488
1268	0	0	0	0	512	484
1269	0	0	0	0	515	475
1270	0	0	0	0	515	481
1271	0	0	0	0	513	502
1272	0	0	0	0	516	516
1273	0	0	0	0	516	531
1274	0	0	0	0	517	543
1275	0	0	0	0	519	545
1276	0	0	0	0	519	540
1277	0	0	0	0	518	527
1278	0	0	0	0	515	510
1279	0	0	0	0	511	492
1280	0	0	0	0	510	482
1281	0	0	0	0	506	489
1282	0	0	0	0	505	511
1283	0	0	0	0	504	527
1284	0	0	0	0	504	536
1285	0	0	0	0	505	537
1286	0	0	0	0	505	534
1287	0	0	0	0	506	529
1288	0	0	0	0	511	520
1289	0	0	0	0	510	505
1290	0	0	0	0	512	503
1291	0	0	0	0	508	499
1292	0	0	0	0	509	500
1293	0	0	0	0	507	504
1294	0	0	0	0	505	505
1295	0	0	0	0	503	501
1296	0	0	0	0	505	499
1297	0	0	0	0	505	496
1298	0	0	0	0	507	502
1299	0	0	0	0	502	507
1300	0	0	0	0	503	512
1301	0	0	0	0	505	517
1302	0	0	0	0	509	519
1303	0	0	0	0	508	518
1304	0	0	0	0	512	515
1305	0	0	0	0	512	512
1306	0	0	0	0	514	506
1307	0	0	0	0	515	500
1308	0	0	0	0	515	504
1309	0	0	0	0	513	515
1310	0	0	0	0	512	525
1311	0	0	0	0	514	529
1312	0	0	0	0	514	534
1313	0	0	0	0	511	532
1314	0	0	0	0	512	529
1315	0	0	0	0	510	520
1316	0	0	0	0	511	508
1317	0	0	0	0	509	500
1318	0	0	0	0	509	499
1319	0	0	0	0	510	503
1320	0	0	0	0	511	506
1321	0	0	0	0	511	513
1322	0	0	0	0	512	515
1323	0	0	0	0	509	519
1324	0	0	0	0	510	519
1325	0	0	0	0	510	517
1326	0	0	0	0	508	511
1327	0	0	0	0	508	507
1328	0	0	0	0	510	504
1329	0	0	0	0	510	504
1330	0	0	0	0	510	507
1331	0	0	0	0	509	507
1332	0	0	0	0	510	509
1333	0	0	0	0	512	513
1334	0	0	0	0	510	513
1335	0	0	0	0	511	512
1336	0	0	0	0	510	513
1337	0	0	0	0	507	510
1338	0	0	0	0	507	504
1339	0	0	0	0	508	502
1340	0	0	0	0	507	499
1341	0	0	0	0	509	472
1342	0	0	0	0	509	460
1343	0	0	0	0	508	486
1344	0	0	0	0	508	512
1345	0	0	0	0	509	530
1346	0	0	0	0	510	540
1347	0	0	0	0	509	548
1348	0	0	0	0	509	565
1349	0	0	0	0	511	575
1350	0	0	0	0	511	568
1351	0	0	0	0	511	550
1352	0	0	0	0	512	514
1353	0	0	0	0	512	498
1354	0	0	0	0	512	498
1355	0	0	0	0	511	502
1356	0	0	0	0	517	496
1357	0	0	0	0	519	492
1358	0	0	0	0	520	495
1359	0	0	0	0	518	503
1360	0	0	0	0	511	512
1361	0	0	0	0	506	514
1362	0	0	0	0	503	512
1363	0	0	0	0	497	515
1364	0	0	0	0	495	519
1365	0	0	0	0	496	516
1366	0	0	0	0	500	515
1367	0	0	0	0	500	508
1368	0	0	0	0	507	500
1369	0	0	0	0	509	498
1370	0	0	0	0	509	501
1371	0	0	0	0	512	506
1372	0	0	0	0	513	510
1373	0	0	0	0	513	512
1374	0	0	0	0	508	516
1375	0	0	0	0	508	514
1376	0	0	0	0	508	513
1377	0	0	0	0	508	507
1378	0	0	0	0	511	499
1379	0	0	0	0	511	502
1380	0	0	0	0	510	502
1381	0	0	0	0	507	497
1382	0	0	0	0	509	485
1383	0	0	0	0	510	492
1384	0	0	0	0	511	502
1385	0	0	0	0	511	519
1386	0	0	0	0	510	525
1387	0	0	0	0	509	538
1388	0	0	0	0	511	545
1389	0	0	0	0	513	557
1390	0	0	0	0	516	553
1391	0	0	0	0	515	539
1392	0	0	0	0	515	523
1393	0	0	0	0	516	512
1394	0	0	0	0	509	505
1395	0	0	0	0	508	502
1396	0	0	0	0	507	501
1397	0	0	0	0	507	497
1398	0	0	0	0	504	500
1399	0	0	0	0	505	502
1400	0	0	0	0	508	500
1401	0	0	0	0	508	501
1402	0	0	0	0	509	504
1403	0	0	0	0	511	511
1404	0	0	0	0	511	509
1405	0	0	0	0	512	508
1406	0	0	0	0	511	512
1407	0	0	0	0	512	515
1408	0	0	0	0	514	516
1409	0	0	0	0	511	512
1410	0	0	0	0	512	510
1411	0	0	0	0	514	512
1412	0	0	0	0	512	517
1413	0	0	0	0	512	519
1414	0	0	0	0	510	519
1415	0	0	0	0	508	516
1416	0	0	0	0	506	513
1417	0	0	0	0	508	504
1418	0	0	0	0	508	498
1419	0	0	0	0	515	504
1420	0	0	0	0	519	509
1421	0	0	0	0	519	516
1422	0	0	0	0	519	521
1423	0	0	0	0	515	521
1424	0	0	0	0	510	519
1425	0	0	0	0	501	513
1426	0	0	0	0	492	496
1427	0	0	0	0	486	498
1428	0	0	0	0	484	510
1429	0	0	0	0	488	519
1430	0	0	0	0	493	530
1431	0	0	0	0	498	533
1432	0	0	0	0	508	531
1433	0	0	0	0	512	525
1434	0	0	0	0	518	506
1435	0	0	0	0	519	489
1436	0	0	0	0	522	487
1437	0	0	0	0	521	492
1438	0	0	0	0	519	496
1439	0	0	0	0	517	499
1440	0	0	0	0	516	510
1441	0	0	0	0	515	527
1442	0	0	0	0	512	541
1443	0	0	0	0	511	550
1444	0	0	0	0	510	543
1445	0	0	0	0	510	534
1446	0	0	0	0	508	526
1447	0	0	0	0	509	514
1448	0	0	0	0	508	507
1449	0	0	0	0	508	504
1450	0	0	0	0	510	499
1451	0	0	0	0	513	488
1452	0	0	0	0	512	486
1453	0	0	0	0	510	492
1454	0	0	0	0	511	500
1455	0	0	0	0	508	509
1456	0	0	0	0	509	512
1457	0	0	0	0	511	517
1458	0	0	0	0	513	519
1459	0	0	0	0	512	519
1460	0	0	0	0	513	508
1461	0	0	0	0	512	493
1462	0	0	0	0	511	487
1463	0	0	0	0	509	487
1464	0	0	0	0	506	503
1465	0	0	0	0	508	523
1466	0	0	0	0	504	533
1467	0	0	0	0	506	546
1468	0	0	0	0	508	555
1469	0	0	0	0	509	555
1470	0	0	0	0	510	544
1471	0	0	0	0	508	529
1472	0	0	0	0	510	515
1473	0	0	0	0	512	506
1474	0	0	0	0	511	505
1475	0	0	0	0	511	500
1476	0	0	0	0	511	497
1477	0	0	0	0	511	497
1478	0	0	0	0	512	496
1479	0	0	0	0	511	499
1480	0	0	0	0	509	491
1481	0	0	0	0	508	480
1482	0	0	0	0	509	476
1483	0	0	0	0	508	487
1484	0	0	0	0	511	501
1485	0	0	0	0	508	520
1486	0	0	0	0	510	536
1487	0	0	0	0	510	544
1488	0	0	0	0	511	549
1489	0	0	0	0	511	550
1490	0	0	0	0	515	534
1491	0	0	0	0	512	519
1492	0	0	0	0	509	511
1493	0	0	0	0	505	504
1494	0	0	0	0	504	503
1495	0	0	0	0	503	503
1496	0	0	0	0	501	498
1497	0	0	0	0	499	499
1498	0	0	0	0	500	503
1499	0	0	0	0	505	510
1500	0	0	0	0	510	511
1501	0	0	0	0	512	514
1502	0	0	0	0	516	516
1503	0	0	0	0	516	518
1504	0	0	0	0	518	519
1505	0	0	0	0	518	515
1506	0	0	0	0	516	515
1507	0	0	0	0	516	505
1508	0	0	0	0	513	506
1509	0	0	0	0	509	503
1510	0	0	0	0	507	503
1511	0	0	0	0	503	506
1512	0	0	0	0	504	503
1513	0	0	0	0	504	496
1514	0	0	0	0	504	487
1515	0	0	0	0	506	490
1516	0	0	0	0	506	509
1517	0	0	0	0	508	530
1518	0	0	0	0	511	547
1519	0	0	0	0	510	554
1520	0	0	0	0	512	552
1521	0	0	0	0	515	542
1522	0	0	0	0	512	534
1523	0	0	0	0	512	517
1524	0	0	0	0	512	503
1525	0	0	0	0	514	499
1526	0	0	0	0	513	499
1527	0	0	0	0	508	504
1528	0	0	0	0	511	504
1529	0	0	0	0	509	507
1530	0	0	0	0	509	510
1531	0	0	0	0	512	510
1532	0	0	0	0	508	504
1533	0	0	0	0	507	503
1534	0	0	0	0	506	503
1535	0	0	0	0	507	497
1536	0	0	0	0	507	493
1537	0	0	0	0	509	499
1538	0	0	0	0	510	510
1539	0	0	0	0	510	520
1540	0	0	0	0	511	527
1541	0	0	0	0	512	531
1542	0	0	0	0	512	536
1543	0	0	0	0	511	533
1544	0	0	0	0	513	527
1545	0	0	0	0	512	519
1546	0	0	0	0	512	511
1547	0	0	0	0	512	506
1548	0	0	0	0	511	502
1549	0	0	0	0	509	505
1550	0	0	0	0	508	505
1551	0	0	0	0	509	504
1552	0	0	0	0	508	504
1553	0	0	0	0	508	501
1554	0	0	0	0	509	502
1555	0	0	0	0	509	501
1556	0	0	0	0	508	505
1557	0	0	0	0	509	511
1558	0	0	0	0	509	512
1559	0	0	0	0	510	518
1560	0	0	0	0	510	527
1561	0	0	0	0	511	528
1562	0	0	0	0	512	526
1563	0	0	0	0	508	523
1564	0	0	0	0	509	519
1565	0	0	0	0	510	515
1566	0	0	0	0	510	512
1567	0	0	0	0	507	510
1568	0	0	0	0	508	508
1569	0	0	0	0	511	510
1570	0	0	0	0	511	510
1571	0	0	0	0	512	511
1572	0	0	0	0	513	510
1573	0	0	0	0	516	508
1574	0	0	0	0	516	508
1575	0	0	0	0	517	508
1576	0	0	0	0	517	504
1577	0	0	0	0	516	504
1578	0	0	0	0	515	495
1579	0	0	0	0	511	493
1580	0	0	0	0	505	503
1581	0	0	0	0	503	513
1582	0	0	0	0	499	521
1583	0	0	0	0	500	519
1584	0	0	0	0	499	510
1585	0	0	0	0	500	519
1586	0	0	0	0	502	529
1587	0	0	0	0	500	530
1588	0	0	0	0	503	527
1589	0	0	0	0	505	523
1590	0	0	0	0	508	519
1591	0	0	0	0	508	523
1592	0	0	0	0	507	522
1593	0	0	0	0	508	518
1594	0	0	0	0	508	513
1595	0	0	0	0	510	510
1596	0	0	0	0	511	504
1597	0	0	0	0	513	501
1598	0	0	0	0	512	497
1599	0	0	0	0	513	495
1600	0	0	0	0	514	497
1601	0	0	0	0	516	504
1602	0	0	0	0	516	513
1603	0	0	0	0	516	522
1604	0	0	0	0	514	527
1605	0	0	0	0	515	515
1606	0	0	0	0	511	489
1607	0	0	0	0	510	483
1608	0	0	0	0	512	492
1609	0	0	0	0	511	509
1610	0	0	0	0	509	524
1611	0	0	0	0	511	535
1612	0	0	0	0	510	538
1613	0	0	0	0	510	544
1614	0	0	0	0	514	544
1615	0	0	0	0	514	543
1616	0	0	0	0	513	525
1617	0	0	0	0	512	505
1618	0	0	0	0	511	502
1619	0	0	0	0	509	501
1620	0	0	0	0	504	492
1621	0	0	0	0	502	492
1622	0	0	0	0	501	491
1623	0	0	0	0	503	503
1624	0	0	0	0	499	511
1625	0	0	0	0	501	517
1626	0	0	0	0	505	523
1627	0	0	0	0	505	524
1628	0	0	0	0	508	515
1629	0	0	0	0	507	513
1630	0	0	0	0	508	513
1631	0	0	0	0	511	512
1632	0	0	0	0	513	511
1633	0	0	0	0	516	510
1634	0	0	0	0	516	512
1635	0	0	0	0	516	509
1636	0	0	0	0	514	510
1637	0	0	0	0	512	506
1638	0	0	0	0	511	499
1639	0	0	0	0	511	499
1640	0	0	0	0	511	499
1641	0	0	0	0	508	498
1642	0	0	0	0	508	507
1643	0	0	0	0	506	519
1644	0	0	0	0	504	531
1645	0	0	0	0	508	534
1646	0	0	0	0	507	532
1647	0	0	0	0	508	529
1648	0	0	0	0	511	519
1649	0	0	0	0	510	517
1650	0	0	0	0	511	511
1651	0	0	0	0	512	507
1652	0	0	0	0	510	505
1653	0	0	0	0	513	508
1654	0	0	0	0	516	508
1655	0	0	0	0	518	507
1656	0	0	0	0	517	506
1657	0	0	0	0	519	500
1658	0	0	0	0	519	485
1659	0	0	0	0	517	459
1660	0	0	0	0	511	463
1661	0	0	0	0	505	493
1662	0	0	0	0	500	521
1663	0	0	0	0	495	541
1664	0	0	0	0	494	556
1665	0	0	0	0	492	560
1666	0	0	0	0	495	559
1667	0	0	0	0	497	547
1668	0	0	0	0	501	532
1669	0	0	0	0	508	521
1670	0	0	0	0	512	513
1671	0	0	0	0	512	512
1672	0	0	0	0	513	511
1673	0	0	0	0	514	511
1674	0	0	0	0	513	507
1675	0	0	0	0	516	504
1676	0	0	0	0	514	504
1677	0	0	0	0	518	498
1678	0	0	0	0	518	498
1679	0	0	0	0	516	499
1680	0	0	0	0	515	507
1681	0	0	0	0	511	508
1682	0	0	0	0	508	511
1683	0	0	0	0	508	513
1684	0	0	0	0	506	515
1685	0	0	0	0	505	507
1686	0	0	0	0	507	496
1687	0	0	0	0	507	495
1688	0	0	0	0	509	497
1689	0	0	0	0	510	493
1690	0	0	0	0	510	499
1691	0	0	0	0	512	515
1692	0	0	0	0	512	540
1693	0	0	0	0	513	555
1694	0	0	0	0	512	552
1695	0	0	0	0	509	543
1696	0	0	0	0	511	533
1697	0	0	0	0	515	529
1698	0	0	0	0	515	524
1699	0	0	0	0	515	511
1700	0	0	0	0	512	500
1701	0	0	0	0	510	499
1702	0	0	0	0	505	495
1703	0	0	0	0	503	494
1704	0	0	0	0	501	494
1705	0	0	0	0	500	486
1706	0	0	0	0	496	485
1707	0	0	0	0	499	483
1708	0	0	0	0	507	490
1709	0	0	0	0	509	505
1710	0	0	0	0	513	512
1711	0	0	0	0	513	516
1712	0	0	0	0	514	526
1713	0	0	0	0	517	527
1714	0	0	0	0	513	530
1715	0	0	0	0	513	528
1716	0	0	0	0	512	523
1717	0	0	0	0	512	522
1718	0	0	0	0	514	520
1719	0	0	0	0	511	516
1720	0	0	0	0	511	512
1721	0	0	0	0	508	509
1722	0	0	0	0	509	506
1723	0	0	0	0	509	505
1724	0	0	0	0	505	502
1725	0	0	0	0	508	502
1726	0	0	0	0	510	505
1727	0	0	0	0	511	508
1728	0	0	0	0	510	505
1729	0	0	0	0	511	501
1730	0	0	0	0	511	504
1731	0	0	0	0	514	507
1732	0	0	0	0	514	505
1733	0	0	0	0	513	511
1734	0	0	0	0	512	520
1735	0	0	0	0	511	516
1736	0	0	0	0	510	511
1737	0	0	0	0	505	511
1738	0	0	0	0	507	515
1739	0	0	0	0	502	520
1740	0	0	0	0	504	518
1741	0	0	0	0	503	520
1742	0	0	0	0	504	513
1743	0	0	0	0	506	515
1744	0	0	0	0	508	523
1745	0	0	0	0	511	532
1746	0	0	0	0	511	534
1747	0	0	0	0	511	531
1748	0	0	0	0	516	526
1749	0	0	0	0	512	524
1750	0	0	0	0	512	518
1751	0	0	0	0	512	509
1752	0	0	0	0	513	504
1753	0	0	0	0	512	500
1754	0	0	0	0	509	499
1755	0	0	0	0	509	503
1756	0	0	0	0	509	504
1757	0	0	0	0	508	507
1758	0	0	0	0	508	511
1759	0	0	0	0	507	510
1760	0	0	0	0	508	509
1761	0	0	0	0	509	509
1762	0	0	0	0	510	507
1763	0	0	0	0	510	508
1764	0	0	0	0	511	510
1765	0	0	0	0	511	511
1766	0	0	0	0	510	514
1767	0	0	0	0	510	513
1768	0	0	0	0	510	512
1769	0	0	0	0	511	512
1770	0	0	0	0	513	509
1771	0	0	0	0	515	512
1772	0	0	0	0	518	512
1773	0	0	0	0	518	515
1774	0	0	0	0	515	515
1775	0	0	0	0	512	519
1776	0	0	0	0	508	516
1777	0	0	0	0	507	517
1778	0	0	0	0	502	515
1779	0	0	0	0	502	517
1780	0	0	0	0	500	515
1781	0	0	0	0	503	516
1782	0	0	0	0	506	515
1783	0	0	0	0	506	515
1784	0	0	0	0	508	512
1785	0	0	0	0	508	507
1786	0	0	0	0	509	507
1787	0	0	0	0	512	509
1788	0	0	0	0	513	510
1789	0	0	0	0	515	511
1790	0	0	0	0	514	512
1791	0	0	0	0	512	510
1792	0	0	0	0	511	509
1793	0	0	0	0	510	508
1794	0	0	0	0	508	510
1795	0	0	0	0	507	512
1796	0	0	0	0	506	513
1797	0	0	0	0	508	512
1798	0	0	0	0	510	513
1799	0	0	0	0	511	515
1800	0	0	0	0	510	516
1801	0	0	0	0	510	512
1802	0	0	0	0	510	510
1803	0	0	0	0	510	500
1804	0	0	0	0	509	487
1805	0	0	0	0	506	467
1806	0	0	0	0	506	475
1807	0	0	0	0	504	483
1808	0	0	0	0	507	474
1809	0	0	0	0	509	496
1810	0	0	0	0	509	537
1811	0	0	0	0	511	573
1812	0	0	0	0	510	594
1813	0	0	0	0	510	592
1814	0	0	0	0	512	581
1815	0	0	0	0	513	562
1816	0	0	0	0	510	539
1817	0	0	0	0	508	519
1818	0	0	0	0	510	508
1819	0	0	0	0	508	496
1820	0	0	0	0	511	489
1821	0	0	0	0	512	492
1822	0	0	0	0	512	489
1823	0	0	0	0	512	490
1824	0	0	0	0	511	493
1825	0	0	0	0	509	494
1826	0	0	0	0	507	497
1827	0	0	0	0	505	500
1828	0	0	0	0	504	498
1829	0	0	0	0	504	500
1830	0	0	0	0	508	508
1831	0	0	0	0	510	508
1832	0	0	0	0	507	511
1833	0	0	0	0	509	509
1834	0	0	0	0	510	510
1835	0	0	0	0	511	512
1836	0	0	0	0	512	514
1837	0	0	0	0	513	509
1838	0	0	0	0	512	507
1839	0	0	0	0	514	509
1840	0	0	0	0	513	499
1841	0	0	0	0	513	491
1842	0	0	0	0	514	498
1843	0	0	0	0	512	511
1844	0	0	0	0	514	523
1845	0	0	0	0	514	539
1846	0	0	0	0	513	543
1847	0	0	0	0	516	547
1848	0	0	0	0	518	547
1849	0	0	0	0	519	542
1850	0	0	0	0	521	526
1851	0	0	0	0	515	511
1852	0	0	0	0	508	503
1853	0	0	0	0	503	498
1854	0	0	0	0	494	498
1855	0	0	0	0	488	502
1856	0	0	0	0	483	504
1857	0	0	0	0	486	504
1858	0	0	0	0	494	505
1859	0	0	0	0	499	506
1860	0	0	0	0	504	505
1861	0	0	0	0	511	498
1862	0	0	0	0	513	497
1863	0	0	0	0	514	499
1864	0	0	0	0	513	504
1865	0	0	0	0	515	513
1866	0	0	0	0	510	518
1867	0	0	0	0	511	523
1868	0	0	0	0	514	526
1869	0	0	0	0	513	528
1870	0	0	0	0	516	529
1871	0	0	0	0	516	522
1872	0	0	0	0	515	513
1873	0	0	0	0	515	511
1874	0	0	0	0	514	507
1875	0	0	0	0	513	507
1876	0	0	0	0	512	509
1877	0	0	0	0	511	508
1878	0	0	0	0	509	511
1879	0	0	0	0	509	504
1880	0	0	0	0	509	499
1881	0	0	0	0	511	495
1882	0	0	0	0	510	500
1883	0	0	0	0	510	509
1884	0	0	0	0	510	516
1885	0	0	0	0	510	524
1886	0	0	0	0	511	526
1887	0	0	0	0	507	523
1888	0	0	0	0	508	522
1889	0	0	0	0	508	519
1890	0	0	0	0	511	518
1891	0	0	0	0	509	513
1892	0	0	0	0	512	512
1893	0	0	0	0	511	515
1894	0	0	0	0	510	516
1895	0	0	0	0	510	515
1896	0	0	0	0	509	514
1897	0	0	0	0	509	510
1898	0	0	0	0	508	507
1899	0	0	0	0	508	502
1900	0	0	0	0	511	492
1901	0	0	0	0	510	487
1902	0	0	0	0	510	497
1903	0	0	0	0	510	509
1904	0	0	0	0	509	498
1905	0	0	0	0	510	497
1906	0	0	0	0	509	510
1907	0	0	0	0	508	527
1908	0	0	0	0	509	533
1909	0	0	0	0	510	521
1910	0	0	0	0	509	523
1911	0	0	0	0	511	536
1912	0	0	0	0	510	548
1913	0	0	0	0	510	549
1914	0	0	0	0	510	540
1915	0	0	0	0	509	519
1916	0	0	0	0	510	508
1917	0	0	0	0	510	511
1918	0	0	0	0	511	506
1919	0	0	0	0	510	492
1920	0	0	0	0	513	472
1921	0	0	0	0	511	473
1922	0	0	0	0	508	489
1923	0	0	0	0	508	510
1924	0	0	0	0	510	523
1925	0	0	0	0	508	532
1926	0	0	0	0	507	536
1927	0	0	0	0	505	534
1928	0	0	0	0	505	530
1929	0	0	0	0	505	520
1930	0	0	0	0	510	504
1931	0	0	0	0	510	495
1932	0	0	0	0	508	489
1933	0	0	0	0	511	488
1934	0	0	0	0	510	483
1935	0	0	0	0	513	487
1936	0	0	0	0	513	504
1937	0	0	0	0	514	518
1938	0	0	0	0	509	527
1939	0	0	0	0	508	534
1940	0	0	0	0	512	536
1941	0	0	0	0	510	533
1942	0	0	0	0	507	526
1943	0	0	0	0	509	520
1944	0	0	0	0	509	513
1945	0	0	0	0	511	507
1946	0	0	0	0	510	504
1947	0	0	0	0	511	504
1948	0	0	0	0	512	504
1949	0	0	0	0	509	503
1950	0	0	0	0	507	500
1951	0	0	0	0	506	505
1952	0	0	0	0	507	507
1953	0	0	0	0	506	508
1954	0	0	0	0	508	511
1955	0	0	0	0	508	515
1956	0	0	0	0	510	513
1957	0	0	0	0	511	518
1958	0	0	0	0	511	516
1959	0	0	0	0	511	513
1960	0	0	0	0	512	511
1961	0	0	0	0	511	510
1962	0	0	0	0	512	511
1963	0	0	0	0	510	511
1964	0	0	0	0	511	511
1965	0	0	0	0	511	507
1966	0	0	0	0	508	504
1967	0	0	0	0	512	506
1968	0	0	0	0	512	496
1969	0	0	0	0	511	489
1970	0	0	0	0	511	494
1971	0	0	0	0	510	506
1972	0	0	0	0	510	520
1973	0	0	0	0	507	532
1974	0	0	0	0	508	544
1975	0	0	0	0	508	542
1976	0	0	0	0	509	542
1977	0	0	0	0	508	541
1978	0	0	0	0	506	535
1979	0	0	0	0	505	526
1980	0	0	0	0	510	516
1981	0	0	0	0	511	510
1982	0	0	0	0	509	509
1983	0	0	0	0	508	506
1984	0	0	0	0	509	501
1985	0	0	0	0	511	501
1986	0	0	0	0	510	502
1987	0	0	0	0	510	502
1988	0	0	0	0	510	499
1989	0	0	0	0	510	494
1990	0	0	0	0	510	499
1991	0	0	0	0	508	503
1992	0	0	0	0	512	507
1993	0	0	0	0	512	511
1994	0	0	0	0	511	513
1995	0	0	0	0	510	517
1996	0	0	0	0	510	513
1997	0	0	0	0	509	511
1998	0	0	0	0	511	515
1999	0	0	0	0	508	508
2000	0	0	0	0	509	498
2001	0	0	0	0	510	504
2002	0	0	0	0	510	499
2003	0	0	0	0	508	468
2004	0	0	0	0	508	470
2005	0	0	0	0	508	499
2006	0	0	0	0	510	534
2007	0	0	0	0	508	559
2008	0	0	0	0	510	575
2009	0	0	0	0	511	575
2010	0	0	0	0	511	568
2011	0	0	0	0	513	556
2012	0	0	0	0	509	538
2013	0	0	0	0	509	519
2014	0	0	0	0	510	503
2015	0	0	0	0	508	496
2016	0	0	0	0	509	495
2017	0	0	0	0	511	496
2018	0	0	0	0	513	501
2019	0	0	0	0	508	500
2020	0	0	0	0	508	499
2021	0	0	0	0	509	497
2022	0	0	0	0	511	496
2023	0	0	0	0	508	497
2024	0	0	0	0	508	497
2025	0	0	0	0	509	496
2026	0	0	0	0	511	502
2027	0	0	0	0	511	515
2028	0	0	0	0	511	516
2029	0	0	0	0	512	518
2030	0	0	0	0	513	517
2031	0	0	0	0	514	516
2032	0	0	0	0	511	515
2033	0	0	0	0	508	513
2034	0	0	0	0	503	513
2035	0	0	0	0	500	508
2036	0	0	0	0	501	508
2037	0	0	0	0	502	510
2038	0	0	0	0	504	509
2039	0	0	0	0	508	502
2040	0	0	0	0	511	498
2041	0	0	0	0	511	499
2042	0	0	0	0	512	507
2043	0	0	0	0	515	503
2044	0	0	0	0	514	507
2045	0	0	0	0	509	515
2046	0	0	0	0	511	526
2047	0	0	0	0	509	539
2048	0	0	0	0	511	544
2049	0	0	0	0	508	535
2050	0	0	0	0	509	521
2051	0	0	0	0	508	518
2052	0	0	0	0	509	511
2053	0	0	0	0	509	508
2054	0	0	0	0	511	507
2055	0	0	0	0	507	504
2056	0	0	0	0	508	494
2057	0	0	0	0	510	499
2058	0	0	0	0	510	510
2059	0	0	0	0	509	515
2060	0	0	0	0	512	515
2061	0	0	0	0	512	509
2062	0	0	0	0	512	504
2063	0	0	0	0	512	498
2064	0	0	0	0	511	497
2065	0	0	0	0	511	505
2066	0	0	0	0	511	512
2067	0	0	0	0	511	519
2068	0	0	0	0	510	531
2069	0	0	0	0	511	536
2070	0	0	0	0	513	533
2071	0	0	0	0	517	531
2072	0	0	0	0	523	525
2073	0	0	0	0	528	523
2074	0	0	0	0	527	516
2075	0	0	0	0	522	511
2076	0	0	0	0	514	507
2077	0	0	0	0	505	508
2078	0	0	0	0	494	507
2079	0	0	0	0	487	506
2080	0	0	0	0	483	487
2081	0	0	0	0	479	465
2082	0	0	0	0	480	453
2083	0	0	0	0	491	471
2084	0	0	0	0	499	495
2085	0	0	0	0	507	505
2086	0	0	0	0	515	521
2087	0	0	0	0	518	541
2088	0	0	0	0	519	555
2089	0	0	0	0	519	566
2090	0	0	0	0	519	572
2091	0	0	0	0	518	556
2092	0	0	0	0	515	534
2093	0	0	0	0	514	523
2094	0	0	0	0	513	509
2095	0	0	0	0	514	500
2096	0	0	0	0	513	494
2097	0	0	0	0	515	499
2098	0	0	0	0	515	504
2099	0	0	0	0	515	507
2100	0	0	0	0	514	506
2101	0	0	0	0	513	507
2102	0	0	0	0	511	508
2103	0	0	0	0	510	501
2104	0	0	0	0	510	494
2105	0	0	0	0	506	481
2106	0	0	0	0	508	476
2107	0	0	0	0	508	490
2108	0	0	0	0	509	511
2109	0	0	0	0	513	537
2110	0	0	0	0	515	547
2111	0	0	0	0	515	552
2112	0	0	0	0	516	553
2113	0	0	0	0	519	545
2114	0	0	0	0	519	532
2115	0	0	0	0	515	516
2116	0	0	0	0	512	503
2117	0	0	0	0	509	497
2118	0	0	0	0	497	496
2119	0	0	0	0	496	494
2120	0	0	0	0	492	487
2121	0	0	0	0	490	478
2122	0	0	0	0	492	480
2123	0	0	0	0	493	481
2124	0	0	0	0	498	496
2125	0	0	0	0	503	512
2126	0	0	0	0	509	527
2127	0	0	0	0	510	536
2128	0	0	0	0	515	545
2129	0	0	0	0	512	551
2130	0	0	0	0	515	543
2131	0	0	0	0	519	526
2132	0	0	0	0	521	512
2133	0	0	0	0	524	505
2134	0	0	0	0	527	499
2135	0	0	0	0	527	491
2136	0	0	0	0	519	490
2137	0	0	0	0	512	493
2138	0	0	0	0	508	500
2139	0	0	0	0	501	504
2140	0	0	0	0	497	504
2141	0	0	0	0	493	505
2142	0	0	0	0	495	509
2143	0	0	0	0	498	521
2144	0	0	0	0	501	520
2145	0	0	0	0	508	519
2146	0	0	0	0	508	526
2147	0	0	0	0	512	530
2148	0	0	0	0	513	531
2149	0	0	0	0	515	529
2150	0	0	0	0	515	516
2151	0	0	0	0	514	508
2152	0	0	0	0	515	503
2153	0	0	0	0	515	486
2154	0	0	0	0	516	476
2155	0	0	0	0	519	483
2156	0	0	0	0	519	502
2157	0	0	0	0	518	511
2158	0	0	0	0	516	516
2159	0	0	0	0	512	523
2160	0	0	0	0	511	540
2161	0	0	0	0	507	555
2162	0	0	0	0	507	557
2163	0	0	0	0	503	543
2164	0	0	0	0	503	527
2165	0	0	0	0	503	520
2166	0	0	0	0	500	508
2167	0	0	0	0	504	500
2168	0	0	0	0	511	497
2169	0	0	0	0	514	496
2170	0	0	0	0	517	496
2171	0	0	0	0	521	500
2172	0	0	0	0	526	503
2173	0	0	0	0	524	496
2174	0	0	0	0	515	485
2175	0	0	0	0	509	472
2176	0	0	0	0	496	490
2177	0	0	0	0	489	511
2178	0	0	0	0	483	522
2179	0	0	0	0	485	532
2180	0	0	0	0	483	540
2181	0	0	0	0	483	545
2182	0	0	0	0	489	541
2183	0	0	0	0	496	529
2184	0	0	0	0	507	512
2185	0	0	0	0	513	503
2186	0	0	0	0	517	487
2187	0	0	0	0	519	468
2188	0	0	0	0	523	479
2189	0	0	0	0	523	503
2190	0	0	0	0	522	523
2191	0	0	0	0	524	538
2192	0	0	0	0	522	546
2193	0	0	0	0	521	548
2194	0	0	0	0	516	546
2195	0	0	0	0	517	537
2196	0	0	0	0	519	523
2197	0	0	0	0	519	508
2198	0	0	0	0	515	500
2199	0	0	0	0	512	495
2200	0	0	0	0	510	495
2201	0	0	0	0	508	495
2202	0	0	0	0	504	500
2203	0	0	0	0	498	503
2204	0	0	0	0	497	503
2205	0	0	0	0	498	501
2206	0	0	0	0	501	502
2207	0	0	0	0	507	501
2208	0	0	0	0	510	500
2209	0	0	0	0	511	505
2210	0	0	0	0	515	504
2211	0	0	0	0	516	507
2212	0	0	0	0	514	510
2213	0	0	0	0	512	513
2214	0	0	0	0	511	519
2215	0	0	0	0	514	529
2216	0	0	0	0	515	537
2217	0	0	0	0	512	540
2218	0	0	0	0	512	540
2219	0	0	0	0	511	536
2220	0	0	0	0	510	532
2221	0	0	0	0	504	520
2222	0	0	0	0	502	508
2223	0	0	0	0	502	503
2224	0	0	0	0	505	497
2225	0	0	0	0	507	493
2226	0	0	0	0	510	496
2227	0	0	0	0	523	499
2228	0	0	0	0	544	500
2229	0	0	0	0	553	503
2230	0	0	0	0	553	504
2231	0	0	0	0	540	499
2232	0	0	0	0	518	507
2233	0	0	0	0	495	513
2234	0	0	0	0	472	519
2235	0	0	0	0	457	521
2236	0	0	0	0	448	526
2237	0	0	0	0	448	516
2238	0	0	0	0	464	502
2239	0	0	0	0	485	491
2240	0	0	0	0	497	487
2241	0	0	0	0	517	500
2242	0	0	0	0	526	516
2243	0	0	0	0	525	532
2244	0	0	0	0	515	536
2245	0	0	0	0	511	533
2246	0	0	0	0	508	532
2247	0	0	0	0	504	527
2248	0	0	0	0	510	515
2249	0	0	0	0	510	490
2250	0	0	0	0	518	471
2251	0	0	0	0	524	472
2252	0	0	0	0	531	496
2253	0	0	0	0	529	522
2254	0	0	0	0	527	539
2255	0	0	0	0	524	545
2256	0	0	0	0	521	547
2257	0	0	0	0	516	527
2258	0	0	0	0	509	519
2259	0	0	0	0	508	512
2260	0	0	0	0	511	513
2261	0	0	0	0	507	518
2262	0	0	0	0	505	523
2263	0	0	0	0	503	519
2264	0	0	0	0	503	515
2265	0	0	0	0	498	515
2266	0	0	0	0	500	516
2267	0	0	0	0	505	514
2268	0	0	0	0	508	511
2269	0	0	0	0	510	502
2270	0	0	0	0	508	497
2271	0	0	0	0	508	491
2272	0	0	0	0	512	493
2273	0	0	0	0	518	500
2274	0	0	0	0	521	504
2275	0	0	0	0	525	507
2276	0	0	0	0	523	510
2277	0	0	0	0	520	508
2278	0	0	0	0	515	508
2279	0	0	0	0	512	513
2280	0	0	0	0	507	520
2281	0	0	0	0	499	529
2282	0	0	0	0	500	523
2283	0	0	0	0	511	514
2284	0	0	0	0	519	515
2285	0	0	0	0	529	502
2286	0	0	0	0	531	488
2287	0	0	0	0	526	489
2288	0	0	0	0	519	504
2289	0	0	0	0	507	523
2290	0	0	0	0	492	539
2291	0	0	0	0	479	546
2292	0	0	0	0	467	545
2293	0	0	0	0	466	542
2294	0	0	0	0	470	540
2295	0	0	0	0	484	530
2296	0	0	0	0	500	515
2297	0	0	0	0	520	503
2298	0	0	0	0	544	495
2299	0	0	0	0	547	491
2300	0	0	0	0	549	492
2301	0	0	0	0	545	494
2302	0	0	0	0	534	495
2303	0	0	0	0	520	495
2304	0	0	0	0	511	499
2305	0	0	0	0	494	503
2306	0	0	0	0	485	507
2307	0	0	0	0	490	508
2308	0	0	0	0	499	511
2309	0	0	0	0	507	515
2310	0	0	0	0	512	517
2311	0	0	0	0	512	517
2312	0	0	0	0	511	514
2313	0	0	0	0	508	513
2314	0	0	0	0	504	510
2315	0	0	0	0	510	513
2316	0	0	0	0	511	519
2317	0	0	0	0	517	520
2318	0	0	0	0	519	518
2319	0	0	0	0	515	518
2320	0	0	0	0	511	515
2321	0	0	0	0	511	503
2322	0	0	0	0	513	504
2323	0	0	0	0	508	500
2324	0	0	0	0	504	499
2325	0	0	0	0	499	490
2326	0	0	0	0	492	491
2327	0	0	0	0	487	501
2328	0	0	0	0	479	516
2329	0	0	0	0	478	528
2330	0	0	0	0	484	537
2331	0	0	0	0	487	544
2332	0	0	0	0	503	552
2333	0	0	0	0	518	549
2334	0	0	0	0	528	531
2335	0	0	0	0	532	512
2336	0	0	0	0	531	503
2337	0	0	0	0	528	491
2338	0	0	0	0	523	487
2339	0	0	0	0	519	493
2340	0	0	0	0	519	502
2341	0	0	0	0	531	507
2342	0	0	0	0	540	507
2343	0	0	0	0	546	495
2344	0	0	0	0	543	482
2345	0	0	0	0	534	489
2346	0	0	0	0	520	502
2347	0	0	0	0	506	515
2348	0	0	0	0	491	529
2349	0	0	0	0	478	539
2350	0	0	0	0	468	551
2351	0	0	0	0	469	548
2352	0	0	0	0	474	540
2353	0	0	0	0	481	531
2354	0	0	0	0	492	523
2355	0	0	0	0	502	510
2356	0	0	0	0	508	492
2357	0	0	0	0	515	486
2358	0	0	0	0	515	489
2359	0	0	0	0	525	495
2360	0	0	0	0	531	505
2361	0	0	0	0	540	517
2362	0	0	0	0	544	518
2363	0	0	0	0	538	511
2364	0	0	0	0	520	492
2365	0	0	0	0	507	492
2366	0	0	0	0	492	502
2367	0	0	0	0	483	513
2368	0	0	0	0	480	523
2369	0	0	0	0	477	524
2370	0	0	0	0	480	512
2371	0	0	0	0	491	519
2372	0	0	0	0	502	528
2373	0	0	0	0	510	526
2374	0	0	0	0	518	511
2375	0	0	0	0	524	477
2376	0	0	0	0	524	473
2377	0	0	0	0	524	499
2378	0	0	0	0	532	525
2379	0	0	0	0	547	539
2380	0	0	0	0	560	546
2381	0	0	0	0	565	545
2382	0	0	0	0	569	536
2383	0	0	0	0	559	515
2384	0	0	0	0	540	491
2385	0	0	0	0	515	492
2386	0	0	0	0	486	504
2387	0	0	0	0	455	519
2388	0	0	0	0	433	529
2389	0	0	0	0	419	534
2390	0	0	0	0	428	539
2391	0	0	0	0	448	536
2392	0	0	0	0	472	522
2393	0	0	0	0	502	498
2394	0	0	0	0	520	478
2395	0	0	0	0	531	471
2396	0	0	0	0	536	477
2397	0	0	0	0	533	498
2398	0	0	0	0	534	516
2399	0	0	0	0	526	524
2400	0	0	0	0	526	532
2401	0	0	0	0	539	534
2402	0	0	0	0	553	523
2403	0	0	0	0	550	511
2404	0	0	0	0	543	502
2405	0	0	0	0	529	498
2406	0	0	0	0	507	499
2407	0	0	0	0	483	504
2408	0	0	0	0	470	514
2409	0	0	0	0	474	522
2410	0	0	0	0	480	525
2411	0	0	0	0	487	516
2412	0	0	0	0	500	496
2413	0	0	0	0	526	496
2414	0	0	0	0	562	506
2415	0	0	0	0	579	519
2416	0	0	0	0	564	527
2417	0	0	0	0	537	532
2418	0	0	0	0	508	529
2419	0	0	0	0	477	515
2420	0	0	0	0	450	503
2421	0	0	0	0	433	492
2422	0	0	0	0	420	494
2423	0	0	0	0	417	508
2424	0	0	0	0	427	524
2425	0	0	0	0	455	530
2426	0	0	0	0	493	537
2427	0	0	0	0	529	536
2428	0	0	0	0	547	529
2429	0	0	0	0	553	520
2430	0	0	0	0	551	513
2431	0	0	0	0	551	505
2432	0	0	0	0	549	500
2433	0	0	0	0	544	500
2434	0	0	0	0	540	502
2435	0	0	0	0	537	502
2436	0	0	0	0	534	501
2437	0	0	0	0	527	505
2438	0	0	0	0	523	505
2439	0	0	0	0	519	508
2440	0	0	0	0	518	511
2441	0	0	0	0	514	514
2442	0	0	0	0	513	518
2443	0	0	0	0	512	517
2444	0	0	0	0	510	518
2445	0	0	0	0	504	513
2446	0	0	0	0	502	513
2447	0	0	0	0	500	506
2448	0	0	0	0	499	481
2449	0	0	0	0	500	468
2450	0	0	0	0	499	473
2451	0	0	0	0	501	473
2452	0	0	0	0	502	477
2453	0	0	0	0	508	474
2454	0	0	0	0	512	502
2455	0	0	0	0	516	555
2456	0	0	0	0	512	598
2457	0	0	0	0	509	617
2458	0	0	0	0	510	606
2459	0	0	0	0	512	567
2460	0	0	0	0	514	549
2461	0	0	0	0	520	529
2462	0	0	0	0	528	509
2463	0	0	0	0	535	501
2464	0	0	0	0	536	499
2465	0	0	0	0	530	501
2466	0	0	0	0	521	510
2467	0	0	0	0	512	504
2468	0	0	0	0	508	496
2469	0	0	0	0	504	494
2470	0	0	0	0	499	490
2471	0	0	0	0	492	491
2472	0	0	0	0	490	490
2473	0	0	0	0	497	492
2474	0	0	0	0	523	495
2475	0	0	0	0	536	494
2476	0	0	0	0	539	496
2477	0	0	0	0	527	501
2478	0	0	0	0	511	501
2479	0	0	0	0	499	505
2480	0	0	0	0	494	510
2481	0	0	0	0	485	507
2482	0	0	0	0	476	504
2483	0	0	0	0	463	504
2484	0	0	0	0	454	507
2485	0	0	0	0	453	514
2486	0	0	0	0	467	515
2487	0	0	0	0	486	501
2488	0	0	0	0	496	500
2489	0	0	0	0	496	515
2490	0	0	0	0	495	529
2491	0	0	0	0	496	532
2492	0	0	0	0	496	528
2493	0	0	0	0	502	526
2494	0	0	0	0	515	531
2495	0	0	0	0	520	530
2496	0	0	0	0	527	525
2497	0	0	0	0	537	517
2498	0	0	0	0	552	513
2499	0	0	0	0	564	514
2500	0	0	0	0	564	516
2501	0	0	0	0	554	515
2502	0	0	0	0	543	507
2503	0	0	0	0	531	496
2504	0	0	0	0	516	475
2505	0	0	0	0	505	476
2506	0	0	0	0	494	497
2507	0	0	0	0	487	513
2508	0	0	0	0	477	524
2509	0	0	0	0	484	531
2510	0	0	0	0	494	524
2511	0	0	0	0	495	515
2512	0	0	0	0	499	513
2513	0	0	0	0	503	513
2514	0	0	0	0	508	516
2515	0	0	0	0	511	529
2516	0	0	0	0	517	544
2517	0	0	0	0	524	551
2518	0	0	0	0	532	551
2519	0	0	0	0	543	536
2520	0	0	0	0	550	512
2521	0	0	0	0	556	502
2522	0	0	0	0	552	498
2523	0	0	0	0	539	499
2524	0	0	0	0	522	501
2525	0	0	0	0	505	507
2526	0	0	0	0	488	508
2527	0	0	0	0	470	506
2528	0	0	0	0	462	505
2529	0	0	0	0	460	507
2530	0	0	0	0	467	503
2531	0	0	0	0	476	500
2532	0	0	0	0	495	499
2533	0	0	0	0	510	500
2534	0	0	0	0	527	503
2535	0	0	0	0	548	508
2536	0	0	0	0	564	504
2537	0	0	0	0	566	497
2538	0	0	0	0	550	495
2539	0	0	0	0	531	500
2540	0	0	0	0	512	491
2541	0	0	0	0	487	487
2542	0	0	0	0	464	507
2543	0	0	0	0	448	532
2544	0	0	0	0	438	557
2545	0	0	0	0	434	565
2546	0	0	0	0	462	557
2547	0	0	0	0	491	547
2548	0	0	0	0	530	529
2549	0	0	0	0	555	519
2550	0	0	0	0	580	511
2551	0	0	0	0	582	505
2552	0	0	0	0	566	501
2553	0	0	0	0	539	502
2554	0	0	0	0	518	503
2555	0	0	0	0	489	499
2556	0	0	0	0	466	496
2557	0	0	0	0	452	497
2558	0	0	0	0	451	499
2559	0	0	0	0	452	490
2560	0	0	0	0	461	481
2561	0	0	0	0	484	458
2562	0	0	0	0	500	447
2563	0	0	0	0	509	482
2564	0	0	0	0	517	524
2565	0	0	0	0	531	563
2566	0	0	0	0	540	585
2567	0	0	0	0	542	587
2568	0	0	0	0	540	580
2569	0	0	0	0	534	565
2570	0	0	0	0	533	541
2571	0	0	0	0	528	513
2572	0	0	0	0	528	492
2573	0	0	0	0	536	481
2574	0	0	0	0	541	479
2575	0	0	0	0	543	483
2576	0	0	0	0	545	480
2577	0	0	0	0	541	454
2578	0	0	0	0	529	397
2579	0	0	0	0	506	380
2580	0	0	0	0	484	435
2581	0	0	0	0	467	518
2582	0	0	0	0	446	584
2583	0	0	0	0	441	627
2584	0	0	0	0	444	639
2585	0	0	0	0	451	633
2586	0	0	0	0	467	606
2587	0	0	0	0	491	565
2588	0	0	0	0	508	523
2589	0	0	0	0	517	494
2590	0	0	0	0	525	481
2591	0	0	0	0	528	481
2592	0	0	0	0	534	481
2593	0	0	0	0	551	481
2594	0	0	0	0	553	489
2595	0	0	0	0	550	500
2596	0	0	0	0	539	507
2597	0	0	0	0	528	512
2598	0	0	0	0	512	507
2599	0	0	0	0	495	505
2600	0	0	0	0	486	503
2601	0	0	0	0	471	504
2602	0	0	0	0	467	496
2603	0	0	0	0	480	495
2604	0	0	0	0	498	491
2605	0	0	0	0	508	487
2606	0	0	0	0	516	492
2607	0	0	0	0	523	495
2608	0	0	0	0	529	472
2609	0	0	0	0	530	467
2610	0	0	0	0	529	476
2611	0	0	0	0	531	494
2612	0	0	0	0	530	511
2613	0	0	0	0	530	542
2614	0	0	0	0	531	579
2615	0	0	0	0	527	577
2616	0	0	0	0	527	559
2617	0	0	0	0	524	543
2618	0	0	0	0	513	544
2619	0	0	0	0	506	551
2620	0	0	0	0	502	551
2621	0	0	0	0	497	547
2622	0	0	0	0	492	540
2623	0	0	0	0	497	534
2624	0	0	0	0	499	519
2625	0	0	0	0	496	499
2626	0	0	0	0	494	488
2627	0	0	0	0	496	479
2628	0	0	0	0	500	477
2629	0	0	0	0	507	479
2630	0	0	0	0	511	473
2631	0	0	0	0	513	474
2632	0	0	0	0	518	472
2633	0	0	0	0	530	472
2634	0	0	0	0	537	466
2635	0	0	0	0	535	469
2636	0	0	0	0	543	481
2637	0	0	0	0	548	512
2638	0	0	0	0	541	547
2639	0	0	0	0	524	574
2640	0	0	0	0	504	585
2641	0	0	0	0	483	588
2642	0	0	0	0	468	575
2643	0	0	0	0	455	549
2644	0	0	0	0	440	527
2645	0	0	0	0	439	508
2646	0	0	0	0	453	492
2647	0	0	0	0	464	483
2648	0	0	0	0	484	483
2649	0	0	0	0	502	464
2650	0	0	0	0	519	422
2651	0	0	0	0	536	404
2652	0	0	0	0	555	428
2653	0	0	0	0	559	471
2654	0	0	0	0	556	515
2655	0	0	0	0	558	562
2656	0	0	0	0	559	596
2657	0	0	0	0	551	607
2658	0	0	0	0	534	601
2659	0	0	0	0	521	595
2660	0	0	0	0	499	572
2661	0	0	0	0	486	539
2662	0	0	0	0	485	514
2663	0	0	0	0	484	493
2664	0	0	0	0	470	398
2665	0	0	0	0	480	344
2666	0	0	0	0	495	385
2667	0	0	0	0	500	452
2668	0	0	0	0	499	527
2669	0	0	0	0	508	590
2670	0	0	0	0	505	631
2671	0	0	0	0	495	637
2672	0	0	0	0	494	618
2673	0	0	0	0	503	587
2674	0	0	0	0	507	559
2675	0	0	0	0	506	524
2676	0	0	0	0	502	499
2677	0	0	0	0	500	478
2678	0	0	0	0	500	474
2679	0	0	0	0	508	472
2680	0	0	0	0	516	476
2681	0	0	0	0	531	480
2682	0	0	0	0	544	484
2683	0	0	0	0	560	488
2684	0	0	0	0	574	492
2685	0	0	0	0	573	500
2686	0	0	0	0	553	502
2687	0	0	0	0	526	498
2688	0	0	0	0	498	488
2689	0	0	0	0	463	492
2690	0	0	0	0	428	503
2691	0	0	0	0	418	513
2692	0	0	0	0	412	523
2693	0	0	0	0	421	527
2694	0	0	0	0	461	528
2695	0	0	0	0	485	524
2696	0	0	0	0	497	523
2697	0	0	0	0	509	515
2698	0	0	0	0	530	502
2699	0	0	0	0	539	495
2700	0	0	0	0	540	491
2701	0	0	0	0	548	500
2702	0	0	0	0	561	514
2703	0	0	0	0	567	518
2704	0	0	0	0	571	517
2705	0	0	0	0	565	527
2706	0	0	0	0	547	539
2707	0	0	0	0	524	538
2708	0	0	0	0	503	531
2709	0	0	0	0	476	528
2710	0	0	0	0	452	525
2711	0	0	0	0	451	524
2712	0	0	0	0	459	519
2713	0	0	0	0	467	503
2714	0	0	0	0	478	485
2715	0	0	0	0	495	475
2716	0	0	0	0	512	478
2717	0	0	0	0	527	487
2718	0	0	0	0	550	503
2719	0	0	0	0	555	502
2720	0	0	0	0	559	481
2721	0	0	0	0	579	460
2722	0	0	0	0	593	472
2723	0	0	0	0	568	511
2724	0	0	0	0	536	548
2725	0	0	0	0	496	571
2726	0	0	0	0	460	575
2727	0	0	0	0	448	567
2728	0	0	0	0	451	568
2729	0	0	0	0	445	560
2730	0	0	0	0	447	543
2731	0	0	0	0	466	528
2732	0	0	0	0	490	525
2733	0	0	0	0	515	515
2734	0	0	0	0	523	508
2735	0	0	0	0	516	502
2736	0	0	0	0	511	495
2737	0	0	0	0	512	489
2738	0	0	0	0	516	484
2739	0	0	0	0	522	484
2740	0	0	0	0	528	478
2741	0	0	0	0	525	477
2742	0	0	0	0	524	487
2743	0	0	0	0	524	498
2744	0	0	0	0	518	508
2745	0	0	0	0	516	517
2746	0	0	0	0	511	523
2747	0	0	0	0	511	525
2748	0	0	0	0	510	526
2749	0	0	0	0	512	523
2750	0	0	0	0	519	511
2751	0	0	0	0	524	505
2752	0	0	0	0	527	509
2753	0	0	0	0	547	516
2754	0	0	0	0	548	520
2755	0	0	0	0	531	519
2756	0	0	0	0	518	516
2757	0	0	0	0	513	511
2758	0	0	0	0	495	505
2759	0	0	0	0	473	504
2760	0	0	0	0	465	507
2761	0	0	0	0	457	503
2762	0	0	0	0	453	488
2763	0	0	0	0	460	491
2764	0	0	0	0	470	504
2765	0	0	0	0	490	507
2766	0	0	0	0	500	504
2767	0	0	0	0	519	516
2768	0	0	0	0	524	529
2769	0	0	0	0	516	535
2770	0	0	0	0	515	534
2771	0	0	0	0	511	531
2772	0	0	0	0	511	531
2773	0	0	0	0	510	529
2774	0	0	0	0	512	505
2775	0	0	0	0	513	448
2776	0	0	0	0	508	453
2777	0	0	0	0	482	491
2778	0	0	0	0	480	535
2779	0	0	0	0	479	568
2780	0	0	0	0	480	583
2781	0	0	0	0	478	566
2782	0	0	0	0	483	556
2783	0	0	0	0	492	553
2784	0	0	0	0	523	543
2785	0	0	0	0	564	519
2786	0	0	0	0	600	504
2787	0	0	0	0	611	502
2788	0	0	0	0	610	503
2789	0	0	0	0	574	505
2790	0	0	0	0	532	498
2791	0	0	0	0	486	491
2792	0	0	0	0	439	479
2793	0	0	0	0	393	469
2794	0	0	0	0	363	459
2795	0	0	0	0	383	462
2796	0	0	0	0	412	480
2797	0	0	0	0	445	499
2798	0	0	0	0	493	517
2799	0	0	0	0	533	530
2800	0	0	0	0	560	548
2801	0	0	0	0	567	561
2802	0	0	0	0	569	555
2803	0	0	0	0	573	531
2804	0	0	0	0	574	511
2805	0	0	0	0	573	485
2806	0	0	0	0	576	476
2807	0	0	0	0	571	486
2808	0	0	0	0	556	496
2809	0	0	0	0	537	510
2810	0	0	0	0	525	521
2811	0	0	0	0	511	531
2812	0	0	0	0	495	534
2813	0	0	0	0	486	520
2814	0	0	0	0	482	496
2815	0	0	0	0	487	493
2816	0	0	0	0	497	504
2817	0	0	0	0	505	514
2818	0	0	0	0	512	527
2819	0	0	0	0	513	532
2820	0	0	0	0	512	534
2821	0	0	0	0	511	532
2822	0	0	0	0	512	526
2823	0	0	0	0	512	515
2824	0	0	0	0	515	510
2825	0	0	0	0	518	504
2826	0	0	0	0	523	502
2827	0	0	0	0	524	490
2828	0	0	0	0	523	489
2829	0	0	0	0	520	496
2830	0	0	0	0	515	508
2831	0	0	0	0	510	510
2832	0	0	0	0	504	514
2833	0	0	0	0	502	507
2834	0	0	0	0	497	498
2835	0	0	0	0	492	499
2836	0	0	0	0	489	512
2837	0	0	0	0	498	523
2838	0	0	0	0	502	530
2839	0	0	0	0	502	540
2840	0	0	0	0	497	540
2841	0	0	0	0	500	536
2842	0	0	0	0	502	528
2843	0	0	0	0	510	513
2844	0	0	0	0	514	478
2845	0	0	0	0	514	460
2846	0	0	0	0	516	440
2847	0	0	0	0	523	449
2848	0	0	0	0	532	476
2849	0	0	0	0	539	505
2850	0	0	0	0	552	531
2851	0	0	0	0	563	545
2852	0	0	0	0	553	547
2853	0	0	0	0	535	512
2854	0	0	0	0	516	503
2855	0	0	0	0	496	531
2856	0	0	0	0	471	565
2857	0	0	0	0	477	591
2858	0	0	0	0	515	606
2859	0	0	0	0	523	595
2860	0	0	0	0	523	570
2861	0	0	0	0	526	528
2862	0	0	0	0	514	488
2863	0	0	0	0	489	474
2864	0	0	0	0	450	468
2865	0	0	0	0	417	479
2866	0	0	0	0	393	496
2867	0	0	0	0	403	509
2868	0	0	0	0	459	520
2869	0	0	0	0	537	515
2870	0	0	0	0	609	499
2871	0	0	0	0	629	488
2872	0	0	0	0	608	486
2873	0	0	0	0	583	491
2874	0	0	0	0	541	472
2875	0	0	0	0	494	478
2876	0	0	0	0	448	489
2877	0	0	0	0	416	498
2878	0	0	0	0	391	488
2879	0	0	0	0	407	455
2880	0	0	0	0	447	466
2881	0	0	0	0	491	497
2882	0	0	0	0	532	540
2883	0	0	0	0	556	578
2884	0	0	0	0	563	596
2885	0	0	0	0	560	594
2886	0	0	0	0	558	591
2887	0	0	0	0	560	575
2888	0	0	0	0	569	540
2889	0	0	0	0	582	500
2890	0	0	0	0	592	483
2891	0	0	0	0	577	481
2892	0	0	0	0	549	483
2893	0	0	0	0	519	484
2894	0	0	0	0	495	480
2895	0	0	0	0	460	484
2896	0	0	0	0	433	493
2897	0	0	0	0	412	502
2898	0	0	0	0	415	505
2899	0	0	0	0	439	507
2900	0	0	0	0	473	499
2901	0	0	0	0	503	487
2902	0	0	0	0	521	475
2903	0	0	0	0	531	470
2904	0	0	0	0	535	485
2905	0	0	0	0	537	510
2906	0	0	0	0	537	535
2907	0	0	0	0	530	551
2908	0	0	0	0	528	561
2909	0	0	0	0	525	560
2910	0	0	0	0	518	555
2911	0	0	0	0	518	549
2912	0	0	0	0	519	540
2913	0	0	0	0	519	527
2914	0	0	0	0	524	517
2915	0	0	0	0	521	506
2916	0	0	0	0	523	497
2917	0	0	0	0	521	496
2918	0	0	0	0	525	495
2919	0	0	0	0	534	500
2920	0	0	0	0	531	503
2921	0	0	0	0	520	507
2922	0	0	0	0	515	508
2923	0	0	0	0	513	507
2924	0	0	0	0	496	503
2925	0	0	0	0	485	489
2926	0	0	0	0	470	478
2927	0	0	0	0	460	470
2928	0	0	0	0	475	483
2929	0	0	0	0	491	506
2930	0	0	0	0	492	524
2931	0	0	0	0	491	538
2932	0	0	0	0	501	531
2933	0	0	0	0	509	521
2934	0	0	0	0	513	504
2935	0	0	0	0	507	506
2936	0	0	0	0	503	519
2937	0	0	0	0	504	528
2938	0	0	0	0	505	539
2939	0	0	0	0	516	541
2940	0	0	0	0	524	551
2941	0	0	0	0	524	560
2942	0	0	0	0	523	555
2943	0	0	0	0	523	539
2944	0	0	0	0	521	511
2945	0	0	0	0	521	492
2946	0	0	0	0	518	483
2947	0	0	0	0	517	472
2948	0	0	0	0	514	459
2949	0	0	0	0	510	451
2950	0	0	0	0	509	460
2951	0	0	0	0	510	496
2952	0	0	0	0	502	518
2953	0	0	0	0	502	538
2954	0	0	0	0	506	551
2955	0	0	0	0	508	540
2956	0	0	0	0	509	541
2957	0	0	0	0	513	543
2958	0	0	0	0	522	543
2959	0	0	0	0	532	532
2960	0	0	0	0	536	522
2961	0	0	0	0	536	515
2962	0	0	0	0	524	512
2963	0	0	0	0	515	509
2964	0	0	0	0	498	501
2965	0	0	0	0	483	495
2966	0	0	0	0	473	492
2967	0	0	0	0	470	495
2968	0	0	0	0	481	499
2969	0	0	0	0	492	503
2970	0	0	0	0	499	507
2971	0	0	0	0	504	509
2972	0	0	0	0	511	510
2973	0	0	0	0	515	511
2974	0	0	0	0	520	509
2975	0	0	0	0	524	509
2976	0	0	0	0	527	508
2977	0	0	0	0	521	508
2978	0	0	0	0	515	509
2979	0	0	0	0	507	508
2980	0	0	0	0	503	509
2981	0	0	0	0	503	503
2982	0	0	0	0	500	497
2983	0	0	0	0	499	497
2984	0	0	0	0	499	472
2985	0	0	0	0	505	476
2986	0	0	0	0	510	499
2987	0	0	0	0	511	526
2988	0	0	0	0	513	551
2989	0	0	0	0	516	566
2990	0	0	0	0	515	565
2991	0	0	0	0	516	561
2992	0	0	0	0	516	547
2993	0	0	0	0	515	528
2994	0	0	0	0	513	511
2995	0	0	0	0	510	500
2996	0	0	0	0	512	487
2997	0	0	0	0	513	487
2998	0	0	0	0	515	492
2999	0	0	0	0	518	499
3000	0	0	0	0	519	511
3001	0	0	0	0	519	516
3002	0	0	0	0	518	517
3003	0	0	0	0	515	517
3004	0	0	0	0	512	521
3005	0	0	0	0	514	521
3006	0	0	0	0	511	516
3007	0	0	0	0	508	500
3008	0	0	0	0	505	482
3009	0	0	0	0	504	459
3010	0	0	0	0	500	439
3011	0	0	0	0	492	427
3012	0	0	0	0	489	429
3013	0	0	0	0	489	460
3014	0	0	0	0	499	521
3015	0	0	0	0	512	580
3016	0	0	0	0	521	613
3017	0	0	0	0	526	625
3018	0	0	0	0	530	632
3019	0	0	0	0	532	607
3020	0	0	0	0	528	579
3021	0	0	0	0	521	555
3022	0	0	0	0	508	526
3023	0	0	0	0	504	505
3024	0	0	0	0	509	498
3025	0	0	0	0	520	496
3026	0	0	0	0	527	488
3027	0	0	0	0	521	484
3028	0	0	0	0	508	481
3029	0	0	0	0	495	479
3030	0	0	0	0	488	478
3031	0	0	0	0	485	467
3032	0	0	0	0	467	463
3033	0	0	0	0	448	481
3034	0	0	0	0	441	497
3035	0	0	0	0	482	511
3036	0	0	0	0	513	520
3037	0	0	0	0	534	521
3038	0	0	0	0	540	518
3039	0	0	0	0	540	519
3040	0	0	0	0	539	524
3041	0	0	0	0	531	521
3042	0	0	0	0	518	519
3043	0	0	0	0	511	518
3044	0	0	0	0	511	511
3045	0	0	0	0	511	503
3046	0	0	0	0	511	498
3047	0	0	0	0	512	494
3048	0	0	0	0	514	489
3049	0	0	0	0	515	486
3050	0	0	0	0	524	480
3051	0	0	0	0	530	499
3052	0	0	0	0	523	512
3053	0	0	0	0	516	539
3054	0	0	0	0	518	560
3055	0	0	0	0	513	571
3056	0	0	0	0	501	571
3057	0	0	0	0	491	556
3058	0	0	0	0	478	534
3059	0	0	0	0	474	511
3060	0	0	0	0	488	499
3061	0	0	0	0	499	487
3062	0	0	0	0	508	482
3063	0	0	0	0	511	478
3064	0	0	0	0	519	475
3065	0	0	0	0	521	489
3066	0	0	0	0	519	504
3067	0	0	0	0	512	515
3068	0	0	0	0	511	512
3069	0	0	0	0	513	501
3070	0	0	0	0	509	502
3071	0	0	0	0	508	508
3072	0	0	0	0	501	510
3073	0	0	0	0	504	521
3074	0	0	0	0	502	510
3075	0	0	0	0	497	504
3076	0	0	0	0	496	519
3077	0	0	0	0	501	539
3078	0	0	0	0	508	550
3079	0	0	0	0	511	548
3080	0	0	0	0	515	550
3081	0	0	0	0	516	553
3082	0	0	0	0	518	553
3083	0	0	0	0	518	545
3084	0	0	0	0	519	521
3085	0	0	0	0	521	497
3086	0	0	0	0	521	484
3087	0	0	0	0	528	486
3088	0	0	0	0	547	489
3089	0	0	0	0	553	492
3090	0	0	0	0	541	494
3091	0	0	0	0	520	495
3092	0	0	0	0	500	480
3093	0	0	0	0	487	461
3094	0	0	0	0	478	467
3095	0	0	0	0	452	488
3096	0	0	0	0	436	512
3097	0	0	0	0	460	531
3098	0	0	0	0	497	544
3099	0	0	0	0	524	550
3100	0	0	0	0	530	544
3101	0	0	0	0	520	529
3102	0	0	0	0	511	515
3103	0	0	0	0	499	502
3104	0	0	0	0	488	495
3105	0	0	0	0	492	505
3106	0	0	0	0	502	509
3107	0	0	0	0	508	516
3108	0	0	0	0	516	524
3109	0	0	0	0	519	538
3110	0	0	0	0	523	533
3111	0	0	0	0	525	513
3112	0	0	0	0	522	497
3113	0	0	0	0	517	500
3114	0	0	0	0	515	502
3115	0	0	0	0	516	507
3116	0	0	0	0	521	512
3117	0	0	0	0	529	509
3118	0	0	0	0	539	507
3119	0	0	0	0	536	515
3120	0	0	0	0	527	528
3121	0	0	0	0	517	524
3122	0	0	0	0	506	522
3123	0	0	0	0	497	524
3124	0	0	0	0	492	525
3125	0	0	0	0	486	527
3126	0	0	0	0	483	519
3127	0	0	0	0	493	507
3128	0	0	0	0	506	499
3129	0	0	0	0	515	499
3130	0	0	0	0	516	502
3131	0	0	0	0	516	504
3132	0	0	0	0	514	503
3133	0	0	0	0	515	504
3134	0	0	0	0	513	505
3135	0	0	0	0	511	504
3136	0	0	0	0	511	507
3137	0	0	0	0	510	507
3138	0	0	0	0	510	501
3139	0	0	0	0	510	503
3140	0	0	0	0	510	504
3141	0	0	0	0	511	501
3142	0	0	0	0	511	486
3143	0	0	0	0	508	487
3144	0	0	0	0	508	498
3145	0	0	0	0	508	500
3146	0	0	0	0	509	511
3147	0	0	0	0	512	531
3148	0	0	0	0	511	548
3149	0	0	0	0	511	555
3150	0	0	0	0	511	545
3151	0	0	0	0	510	531
3152	0	0	0	0	512	529
3153	0	0	0	0	510	533
3154	0	0	0	0	510	534
3155	0	0	0	0	510	532
3156	0	0	0	0	510	534
3157	0	0	0	0	512	537
3158	0	0	0	0	515	526
3159	0	0	0	0	517	516
3160	0	0	0	0	518	506
3161	0	0	0	0	520	499
3162	0	0	0	0	516	493
3163	0	0	0	0	512	490
3164	0	0	0	0	507	486
3165	0	0	0	0	504	474
3166	0	0	0	0	496	466
3167	0	0	0	0	495	466
3168	0	0	0	0	499	463
3169	0	0	0	0	503	466
3170	0	0	0	0	507	472
3171	0	0	0	0	508	499
3172	0	0	0	0	512	522
3173	0	0	0	0	509	513
3174	0	0	0	0	498	515
3175	0	0	0	0	495	520
3176	0	0	0	0	491	553
3177	0	0	0	0	493	585
3178	0	0	0	0	504	596
3179	0	0	0	0	515	593
3180	0	0	0	0	520	583
3181	0	0	0	0	521	563
3182	0	0	0	0	519	541
3183	0	0	0	0	517	513
3184	0	0	0	0	515	491
3185	0	0	0	0	514	479
3186	0	0	0	0	515	477
3187	0	0	0	0	512	477
3188	0	0	0	0	509	474
3189	0	0	0	0	507	478
3190	0	0	0	0	511	481
3191	0	0	0	0	512	483
3192	0	0	0	0	512	488
3193	0	0	0	0	512	495
3194	0	0	0	0	513	507
3195	0	0	0	0	512	514
3196	0	0	0	0	513	507
3197	0	0	0	0	512	489
3198	0	0	0	0	514	488
3199	0	0	0	0	518	506
3200	0	0	0	0	519	523
3201	0	0	0	0	520	526
3202	0	0	0	0	517	534
3203	0	0	0	0	515	536
3204	0	0	0	0	514	537
3205	0	0	0	0	512	531
3206	0	0	0	0	502	518
3207	0	0	0	0	495	509
3208	0	0	0	0	496	503
3209	0	0	0	0	507	506
3210	0	0	0	0	512	502
3211	0	0	0	0	515	499
3212	0	0	0	0	518	493
3213	0	0	0	0	513	493
3214	0	0	0	0	509	497
3215	0	0	0	0	503	503
3216	0	0	0	0	496	523
3217	0	0	0	0	487	543
3218	0	0	0	0	486	558
3219	0	0	0	0	495	559
3220	0	0	0	0	505	543
3221	0	0	0	0	512	526
3222	0	0	0	0	521	515
3223	0	0	0	0	527	505
3224	0	0	0	0	524	502
3225	0	0	0	0	521	502
3226	0	0	0	0	516	500
3227	0	0	0	0	513	509
3228	0	0	0	0	511	515
3229	0	0	0	0	508	514
3230	0	0	0	0	508	503
3231	0	0	0	0	511	495
3232	0	0	0	0	512	499
3233	0	0	0	0	511	504
3234	0	0	0	0	508	507
3235	0	0	0	0	508	503
3236	0	0	0	0	506	499
3237	0	0	0	0	504	495
3238	0	0	0	0	501	500
3239	0	0	0	0	497	510
3240	0	0	0	0	499	516
3241	0	0	0	0	507	519
3242	0	0	0	0	512	513
3243	0	0	0	0	515	499
3244	0	0	0	0	515	511
3245	0	0	0	0	514	519
3246	0	0	0	0	516	530
3247	0	0	0	0	513	531
3248	0	0	0	0	511	531
3249	0	0	0	0	509	524
3250	0	0	0	0	508	528
3251	0	0	0	0	510	531
3252	0	0	0	0	511	526
3253	0	0	0	0	511	499
3254	0	0	0	0	510	474
3255	0	0	0	0	512	482
3256	0	0	0	0	513	500
3257	0	0	0	0	509	511
3258	0	0	0	0	510	504
3259	0	0	0	0	508	494
3260	0	0	0	0	510	512
3261	0	0	0	0	509	536
3262	0	0	0	0	508	543
3263	0	0	0	0	507	541
3264	0	0	0	0	509	539
3265	0	0	0	0	510	539
3266	0	0	0	0	510	525
3267	0	0	0	0	509	514
3268	0	0	0	0	508	499
3269	0	0	0	0	509	489
3270	0	0	0	0	511	495
3271	0	0	0	0	509	505
3272	0	0	0	0	508	505
3273	0	0	0	0	509	512
3274	0	0	0	0	506	512
3275	0	0	0	0	508	499
3276	0	0	0	0	513	497
3277	0	0	0	0	517	500
3278	0	0	0	0	519	511
3279	0	0	0	0	516	522
3280	0	0	0	0	514	528
3281	0	0	0	0	510	531
3282	0	0	0	0	502	511
3283	0	0	0	0	501	480
3284	0	0	0	0	495	441
3285	0	0	0	0	496	423
3286	0	0	0	0	498	465
3287	0	0	0	0	502	519
3288	0	0	0	0	509	568
3289	0	0	0	0	515	595
3290	0	0	0	0	518	609
3291	0	0	0	0	515	604
3292	0	0	0	0	512	578
3293	0	0	0	0	511	544
3294	0	0	0	0	510	513
3295	0	0	0	0	507	491
3296	0	0	0	0	503	482
3297	0	0	0	0	502	480
3298	0	0	0	0	507	482
3299	0	0	0	0	513	483
3300	0	0	0	0	519	480
3301	0	0	0	0	529	480
3302	0	0	0	0	540	483
3303	0	0	0	0	550	492
3304	0	0	0	0	549	499
3305	0	0	0	0	535	507
3306	0	0	0	0	515	512
3307	0	0	0	0	494	515
3308	0	0	0	0	471	516
3309	0	0	0	0	457	519
3310	0	0	0	0	452	525
3311	0	0	0	0	451	526
3312	0	0	0	0	462	526
3313	0	0	0	0	483	524
3314	0	0	0	0	502	523
3315	0	0	0	0	515	519
3316	0	0	0	0	521	515
3317	0	0	0	0	526	509
3318	0	0	0	0	531	506
3319	0	0	0	0	528	506
3320	0	0	0	0	526	507
3321	0	0	0	0	525	507
3322	0	0	0	0	524	511
3323	0	0	0	0	522	510
3324	0	0	0	0	519	509
3325	0	0	0	0	516	511
3326	0	0	0	0	517	511
3327	0	0	0	0	515	512
3328	0	0	0	0	515	512
3329	0	0	0	0	513	511
3330	0	0	0	0	512	512
3331	0	0	0	0	510	512
3332	0	0	0	0	510	512
3333	0	0	0	0	511	514
3334	0	0	0	0	508	512
3335	0	0	0	0	509	511
3336	0	0	0	0	509	509
3337	0	0	0	0	510	512
3338	0	0	0	0	510	512
3339	0	0	0	0	507	508
3340	0	0	0	0	508	510
3341	0	0	0	0	508	515
3342	0	0	0	0	508	520
3343	0	0	0	0	508	523
3344	0	0	0	0	512	518
3345	0	0	0	0	510	515
3346	0	0	0	0	511	518
3347	0	0	0	0	511	511
3348	0	0	0	0	510	500
3349	0	0	0	0	508	498
3350	0	0	0	0	509	499
3351	0	0	0	0	511	509
3352	0	0	0	0	511	519
3353	0	0	0	0	510	524
3354	0	0	0	0	508	523
3355	0	0	0	0	511	510
3356	0	0	0	0	512	504
3357	0	0	0	0	518	493
3358	0	0	0	0	519	496
3359	0	0	0	0	515	495
3360	0	0	0	0	514	502
3361	0	0	0	0	508	516
3362	0	0	0	0	505	539
3363	0	0	0	0	502	551
3364	0	0	0	0	502	556
3365	0	0	0	0	500	545
3366	0	0	0	0	504	523
3367	0	0	0	0	504	504
3368	0	0	0	0	511	492
3369	0	0	0	0	510	478
3370	0	0	0	0	508	486
3371	0	0	0	0	507	505
3372	0	0	0	0	508	529
3373	0	0	0	0	506	547
3374	0	0	0	0	508	556
3375	0	0	0	0	508	554
3376	0	0	0	0	510	540
3377	0	0	0	0	515	517
3378	0	0	0	0	532	499
3379	0	0	0	0	563	484
3380	0	0	0	0	580	481
3381	0	0	0	0	573	488
3382	0	0	0	0	552	495
3383	0	0	0	0	519	505
3384	0	0	0	0	489	515
3385	0	0	0	0	462	513
3386	0	0	0	0	435	512
3387	0	0	0	0	414	510
3388	0	0	0	0	400	505
3389	0	0	0	0	415	503
3390	0	0	0	0	449	506
3391	0	0	0	0	483	505
3392	0	0	0	0	512	507
3393	0	0	0	0	527	511
3394	0	0	0	0	532	508
3395	0	0	0	0	536	510
3396	0	0	0	0	538	502
3397	0	0	0	0	535	495
3398	0	0	0	0	535	503
3399	0	0	0	0	532	517
3400	0	0	0	0	530	529
3401	0	0	0	0	528	527
3402	0	0	0	0	524	526
3403	0	0	0	0	524	510
3404	0	0	0	0	521	488
3405	0	0	0	0	519	487
3406	0	0	0	0	518	503
3407	0	0	0	0	515	521
3408	0	0	0	0	513	534
3409	0	0	0	0	513	529
3410	0	0	0	0	512	531
3411	0	0	0	0	514	535
3412	0	0	0	0	512	532
3413	0	0	0	0	513	530
3414	0	0	0	0	509	514
3415	0	0	0	0	510	498
3416	0	0	0	0	509	494
3417	0	0	0	0	508	503
3418	0	0	0	0	508	508
3419	0	0	0	0	508	509
3420	0	0	0	0	507	515
3421	0	0	0	0	507	528
3422	0	0	0	0	508	534
3423	0	0	0	0	510	536
3424	0	0	0	0	508	526
3425	0	0	0	0	508	512
3426	0	0	0	0	510	504
3427	0	0	0	0	507	504
3428	0	0	0	0	508	498
3429	0	0	0	0	507	483
3430	0	0	0	0	508	464
3431	0	0	0	0	511	451
3432	0	0	0	0	511	453
3433	0	0	0	0	510	479
3434	0	0	0	0	511	516
3435	0	0	0	0	509	556
3436	0	0	0	0	511	583
3437	0	0	0	0	511	605
3438	0	0	0	0	511	596
3439	0	0	0	0	509	564
3440	0	0	0	0	507	531
3441	0	0	0	0	508	512
3442	0	0	0	0	508	499
3443	0	0	0	0	509	489
3444	0	0	0	0	511	486
3445	0	0	0	0	511	486
3446	0	0	0	0	508	477
3447	0	0	0	0	510	462
3448	0	0	0	0	510	463
3449	0	0	0	0	512	476
3450	0	0	0	0	510	489
3451	0	0	0	0	512	482
3452	0	0	0	0	510	393
3453	0	0	0	0	512	335
3454	0	0	0	0	510	406
3455	0	0	0	0	511	518
3456	0	0	0	0	508	611
3457	0	0	0	0	507	673
3458	0	0	0	0	509	694
3459	0	0	0	0	508	684
3460	0	0	0	0	505	667
3461	0	0	0	0	508	635
3462	0	0	0	0	507	568
3463	0	0	0	0	507	510
3464	0	0	0	0	506	478
3465	0	0	0	0	509	465
3466	0	0	0	0	511	467
3467	0	0	0	0	511	473
3468	0	0	0	0	513	480
3469	0	0	0	0	512	476
3470	0	0	0	0	512	457
3471	0	0	0	0	511	450
3472	0	0	0	0	513	455
3473	0	0	0	0	514	455
3474	0	0	0	0	514	459
3475	0	0	0	0	514	470
3476	0	0	0	0	515	473
3477	0	0	0	0	512	483
3478	0	0	0	0	509	513
3479	0	0	0	0	505	554
3480	0	0	0	0	504	587
3481	0	0	0	0	503	600
3482	0	0	0	0	503	573
3483	0	0	0	0	501	550
3484	0	0	0	0	503	519
3485	0	0	0	0	509	508
3486	0	0	0	0	511	500
3487	0	0	0	0	515	492
3488	0	0	0	0	511	498
3489	0	0	0	0	516	513
3490	0	0	0	0	517	505
3491	0	0	0	0	514	505
3492	0	0	0	0	511	510
3493	0	0	0	0	509	520
3494	0	0	0	0	507	526
3495	0	0	0	0	505	528
3496	0	0	0	0	503	520
3497	0	0	0	0	499	511
3498	0	0	0	0	498	507
3499	0	0	0	0	499	510
3500	0	0	0	0	502	492
3501	0	0	0	0	504	481
3502	0	0	0	0	507	493
3503	0	0	0	0	510	507
3504	0	0	0	0	511	501
3505	0	0	0	0	512	504
3506	0	0	0	0	512	509
3507	0	0	0	0	517	519
3508	0	0	0	0	513	532
3509	0	0	0	0	514	521
3510	0	0	0	0	513	480
3511	0	0	0	0	515	468
3512	0	0	0	0	521	485
3513	0	0	0	0	524	502
3514	0	0	0	0	527	519
3515	0	0	0	0	534	526
3516	0	0	0	0	538	536
3517	0	0	0	0	529	547
3518	0	0	0	0	521	554
3519	0	0	0	0	507	528
3520	0	0	0	0	491	494
3521	0	0	0	0	476	470
3522	0	0	0	0	470	481
3523	0	0	0	0	470	504
3524	0	0	0	0	472	521
3525	0	0	0	0	481	535
3526	0	0	0	0	491	542
3527	0	0	0	0	505	543
3528	0	0	0	0	518	532
3529	0	0	0	0	520	517
3530	0	0	0	0	523	499
3531	0	0	0	0	533	483
3532	0	0	0	0	547	473
3533	0	0	0	0	566	467
3534	0	0	0	0	571	459
3535	0	0	0	0	570	422
3536	0	0	0	0	571	417
3537	0	0	0	0	555	446
3538	0	0	0	0	515	495
3539	0	0	0	0	481	545
3540	0	0	0	0	456	577
3541	0	0	0	0	437	597
3542	0	0	0	0	427	603
3543	0	0	0	0	430	614
3544	0	0	0	0	448	614
3545	0	0	0	0	471	580
3546	0	0	0	0	494	527
3547	0	0	0	0	515	479
3548	0	0	0	0	521	468
3549	0	0	0	0	521	463
3550	0	0	0	0	515	486
3551	0	0	0	0	511	507
3552	0	0	0	0	504	514
3553	0	0	0	0	501	519
3554	0	0	0	0	505	498
3555	0	0	0	0	513	495
3556	0	0	0	0	513	510
3557	0	0	0	0	513	530
3558	0	0	0	0	512	540
3559	0	0	0	0	509	548
3560	0	0	0	0	507	541
3561	0	0	0	0	508	531
3562	0	0	0	0	512	516
3563	0	0	0	0	515	490
3564	0	0	0	0	530	471
3565	0	0	0	0	550	470
3566	0	0	0	0	562	475
3567	0	0	0	0	558	477
3568	0	0	0	0	551	483
3569	0	0	0	0	534	489
3570	0	0	0	0	512	508
3571	0	0	0	0	494	503
3572	0	0	0	0	473	492
3573	0	0	0	0	460	514
3574	0	0	0	0	455	543
3575	0	0	0	0	463	559
3576	0	0	0	0	486	566
3577	0	0	0	0	513	562
3578	0	0	0	0	536	552
3579	0	0	0	0	541	545
3580	0	0	0	0	538	531
3581	0	0	0	0	531	516
3582	0	0	0	0	520	504
3583	0	0	0	0	510	497
3584	0	0	0	0	498	487
3585	0	0	0	0	492	472
3586	0	0	0	0	487	463
3587	0	0	0	0	490	446
3588	0	0	0	0	495	440
3589	0	0	0	0	504	448
3590	0	0	0	0	513	492
3591	0	0	0	0	517	541
3592	0	0	0	0	519	569
3593	0	0	0	0	520	583
3594	0	0	0	0	519	591
3595	0	0	0	0	519	575
3596	0	0	0	0	519	547
3597	0	0	0	0	515	518
3598	0	0	0	0	512	501
3599	0	0	0	0	513	481
3600	0	0	0	0	513	482
3601	0	0	0	0	511	494
3602	0	0	0	0	512	508
3603	0	0	0	0	511	518
3604	0	0	0	0	510	511
3605	0	0	0	0	510	499
3606	0	0	0	0	510	494
3607	0	0	0	0	509	456
3608	0	0	0	0	510	378
3609	0	0	0	0	510	391
3610	0	0	0	0	510	478
3611	0	0	0	0	510	562
3612	0	0	0	0	511	617
3613	0	0	0	0	513	633
3614	0	0	0	0	514	614
3615	0	0	0	0	513	602
3616	0	0	0	0	519	595
3617	0	0	0	0	535	552
3618	0	0	0	0	543	494
3619	0	0	0	0	544	479
3620	0	0	0	0	536	500
3621	0	0	0	0	519	531
3622	0	0	0	0	503	521
3623	0	0	0	0	486	491
3624	0	0	0	0	469	487
3625	0	0	0	0	458	510
3626	0	0	0	0	454	516
3627	0	0	0	0	463	521
3628	0	0	0	0	473	522
3629	0	0	0	0	488	519
3630	0	0	0	0	498	527
3631	0	0	0	0	504	529
3632	0	0	0	0	509	511
3633	0	0	0	0	511	495
3634	0	0	0	0	511	488
3635	0	0	0	0	508	491
3636	0	0	0	0	515	479
3637	0	0	0	0	520	476
3638	0	0	0	0	523	474
3639	0	0	0	0	526	460
3640	0	0	0	0	526	440
3641	0	0	0	0	524	460
3642	0	0	0	0	521	496
3643	0	0	0	0	524	535
3644	0	0	0	0	524	560
3645	0	0	0	0	522	528
3646	0	0	0	0	521	462
3647	0	0	0	0	517	442
3648	0	0	0	0	514	478
3649	0	0	0	0	513	540
3650	0	0	0	0	511	600
3651	0	0	0	0	507	627
3652	0	0	0	0	504	607
3653	0	0	0	0	507	564
3654	0	0	0	0	507	519
3655	0	0	0	0	507	491
3656	0	0	0	0	510	508
3657	0	0	0	0	511	521
3658	0	0	0	0	509	528
3659	0	0	0	0	508	546
3660	0	0	0	0	509	562
3661	0	0	0	0	505	568
3662	0	0	0	0	503	553
3663	0	0	0	0	505	505
3664	0	0	0	0	503	484
3665	0	0	0	0	508	481
3666	0	0	0	0	510	491
3667	0	0	0	0	508	496
3668	0	0	0	0	511	499
3669	0	0	0	0	518	502
3670	0	0	0	0	518	504
3671	0	0	0	0	516	502
3672	0	0	0	0	515	496
3673	0	0	0	0	512	494
3674	0	0	0	0	508	487
3675	0	0	0	0	503	451
3676	0	0	0	0	500	428
3677	0	0	0	0	500	412
3678	0	0	0	0	501	451
3679	0	0	0	0	500	486
3680	0	0	0	0	504	492
3681	0	0	0	0	507	519
3682	0	0	0	0	511	564
3683	0	0	0	0	514	595
3684	0	0	0	0	515	573
3685	0	0	0	0	524	545
3686	0	0	0	0	529	537
3687	0	0	0	0	531	550
3688	0	0	0	0	532	567
3689	0	0	0	0	528	563
3690	0	0	0	0	522	546
3691	0	0	0	0	510	546
3692	0	0	0	0	499	560
3693	0	0	0	0	489	560
3694	0	0	0	0	483	540
3695	0	0	0	0	480	515
3696	0	0	0	0	482	493
3697	0	0	0	0	489	475
3698	0	0	0	0	497	465
3699	0	0	0	0	503	439
3700	0	0	0	0	512	427
3701	0	0	0	0	517	396
3702	0	0	0	0	519	398
3703	0	0	0	0	519	444
3704	0	0	0	0	513	504
3705	0	0	0	0	508	569
3706	0	0	0	0	503	608
3707	0	0	0	0	502	617
3708	0	0	0	0	508	608
3709	0	0	0	0	515	591
3710	0	0	0	0	529	571
3711	0	0	0	0	533	550
3712	0	0	0	0	529	527
3713	0	0	0	0	524	505
3714	0	0	0	0	517	481
3715	0	0	0	0	505	432
3716	0	0	0	0	496	423
3717	0	0	0	0	495	459
3718	0	0	0	0	492	500
3719	0	0	0	0	493	519
3720	0	0	0	0	493	520
3721	0	0	0	0	499	515
3722	0	0	0	0	511	510
3723	0	0	0	0	516	501
3724	0	0	0	0	518	503
3725	0	0	0	0	515	515
3726	0	0	0	0	513	532
3727	0	0	0	0	514	547
3728	0	0	0	0	513	546
3729	0	0	0	0	507	550
3730	0	0	0	0	501	548
3731	0	0	0	0	497	536
3732	0	0	0	0	499	520
3733	0	0	0	0	501	507
3734	0	0	0	0	503	498
3735	0	0	0	0	508	492
3736	0	0	0	0	512	483
3737	0	0	0	0	514	484
3738	0	0	0	0	515	492
3739	0	0	0	0	518	499
3740	0	0	0	0	516	499
3741	0	0	0	0	515	494
3742	0	0	0	0	516	499
3743	0	0	0	0	520	507
3744	0	0	0	0	520	511
3745	0	0	0	0	522	511
3746	0	0	0	0	516	513
3747	0	0	0	0	512	498
3748	0	0	0	0	511	470
3749	0	0	0	0	508	453
3750	0	0	0	0	505	476
3751	0	0	0	0	504	507
3752	0	0	0	0	503	500
3753	0	0	0	0	501	501
3754	0	0	0	0	504	526
3755	0	0	0	0	505	573
3756	0	0	0	0	505	598
3757	0	0	0	0	507	588
3758	0	0	0	0	511	567
3759	0	0	0	0	515	555
3760	0	0	0	0	515	549
3761	0	0	0	0	516	528
3762	0	0	0	0	516	499
3763	0	0	0	0	511	487
3764	0	0	0	0	507	483
3765	0	0	0	0	505	483
3766	0	0	0	0	502	484
3767	0	0	0	0	500	471
3768	0	0	0	0	504	441
3769	0	0	0	0	511	435
3770	0	0	0	0	515	461
3771	0	0	0	0	516	502
3772	0	0	0	0	517	534
3773	0	0	0	0	510	556
3774	0	0	0	0	500	575
3775	0	0	0	0	495	582
3776	0	0	0	0	493	577
3777	0	0	0	0	494	556
3778	0	0	0	0	494	519
3779	0	0	0	0	496	495
3780	0	0	0	0	502	488
3781	0	0	0	0	512	487
3782	0	0	0	0	522	491
3783	0	0	0	0	531	494
3784	0	0	0	0	533	497
3785	0	0	0	0	540	499
3786	0	0	0	0	540	503
3787	0	0	0	0	532	497
3788	0	0	0	0	519	496
3789	0	0	0	0	504	500
3790	0	0	0	0	490	509
3791	0	0	0	0	480	514
3792	0	0	0	0	472	517
3793	0	0	0	0	471	520
3794	0	0	0	0	478	523
3795	0	0	0	0	490	521
3796	0	0	0	0	508	519
3797	0	0	0	0	521	513
3798	0	0	0	0	531	508
3799	0	0	0	0	531	506
3800	0	0	0	0	528	507
3801	0	0	0	0	516	507
3802	0	0	0	0	508	505
3803	0	0	0	0	498	504
3804	0	0	0	0	497	508
3805	0	0	0	0	497	510
3806	0	0	0	0	502	511
3807	0	0	0	0	509	509
3808	0	0	0	0	514	513
3809	0	0	0	0	522	518
3810	0	0	0	0	529	510
3811	0	0	0	0	543	484
3812	0	0	0	0	549	460
3813	0	0	0	0	548	455
3814	0	0	0	0	540	467
3815	0	0	0	0	531	492
3816	0	0	0	0	520	487
3817	0	0	0	0	504	478
3818	0	0	0	0	483	528
3819	0	0	0	0	470	589
3820	0	0	0	0	466	624
3821	0	0	0	0	473	623
3822	0	0	0	0	482	581
3823	0	0	0	0	492	531
3824	0	0	0	0	507	514
3825	0	0	0	0	511	503
3826	0	0	0	0	512	503
3827	0	0	0	0	510	516
3828	0	0	0	0	509	532
3829	0	0	0	0	509	551
3830	0	0	0	0	508	560
3831	0	0	0	0	507	544
3832	0	0	0	0	507	512
3833	0	0	0	0	508	476
3834	0	0	0	0	511	464
3835	0	0	0	0	514	466
3836	0	0	0	0	516	475
3837	0	0	0	0	518	483
3838	0	0	0	0	518	492
3839	0	0	0	0	521	499
3840	0	0	0	0	521	502
3841	0	0	0	0	523	504
3842	0	0	0	0	520	505
3843	0	0	0	0	519	505
3844	0	0	0	0	517	504
3845	0	0	0	0	516	506
3846	0	0	0	0	515	508
3847	0	0	0	0	520	508
3848	0	0	0	0	517	508
3849	0	0	0	0	521	510
3850	0	0	0	0	524	514
3851	0	0	0	0	527	514
3852	0	0	0	0	530	515
3853	0	0	0	0	520	518
3854	0	0	0	0	509	516
3855	0	0	0	0	496	513
3856	0	0	0	0	484	512
3857	0	0	0	0	476	512
3858	0	0	0	0	470	511
3859	0	0	0	0	467	514
3860	0	0	0	0	472	514
3861	0	0	0	0	479	515
3862	0	0	0	0	491	515
3863	0	0	0	0	505	518
3864	0	0	0	0	519	521
3865	0	0	0	0	532	520
3866	0	0	0	0	543	514
3867	0	0	0	0	543	512
3868	0	0	0	0	537	507
3869	0	0	0	0	529	495
3870	0	0	0	0	519	492
3871	0	0	0	0	510	495
3872	0	0	0	0	497	489
3873	0	0	0	0	492	489
3874	0	0	0	0	487	507
3875	0	0	0	0	492	521
3876	0	0	0	0	496	534
3877	0	0	0	0	506	543
3878	0	0	0	0	515	538
3879	0	0	0	0	522	532
3880	0	0	0	0	524	517
3881	0	0	0	0	526	511
3882	0	0	0	0	527	510
3883	0	0	0	0	528	512
3884	0	0	0	0	525	514
3885	0	0	0	0	517	516
3886	0	0	0	0	511	516
3887	0	0	0	0	509	516
3888	0	0	0	0	508	511
3889	0	0	0	0	503	501
3890	0	0	0	0	507	498
3891	0	0	0	0	508	504
3892	0	0	0	0	512	504
3893	0	0	0	0	516	504
3894	0	0	0	0	518	506
3895	0	0	0	0	518	509
3896	0	0	0	0	515	508
3897	0	0	0	0	498	485
3898	0	0	0	0	458	449
3899	0	0	0	0	412	440
3900	0	0	0	0	408	465
3901	0	0	0	0	421	509
3902	0	0	0	0	439	543
3903	0	0	0	0	458	561
3904	0	0	0	0	479	517
3905	0	0	0	0	499	489
3906	0	0	0	0	518	523
3907	0	0	0	0	530	553
3908	0	0	0	0	535	576
3909	0	0	0	0	540	586
3910	0	0	0	0	541	588
3911	0	0	0	0	540	583
3912	0	0	0	0	532	553
3913	0	0	0	0	529	460
3914	0	0	0	0	528	383
3915	0	0	0	0	523	377
3916	0	0	0	0	523	435
3917	0	0	0	0	525	507
3918	0	0	0	0	528	563
3919	0	0	0	0	533	600
3920	0	0	0	0	534	627
3921	0	0	0	0	530	633
3922	0	0	0	0	529	602
3923	0	0	0	0	531	540
3924	0	0	0	0	529	480
3925	0	0	0	0	534	456
3926	0	0	0	0	535	458
3927	0	0	0	0	531	467
3928	0	0	0	0	523	466
3929	0	0	0	0	512	474
3930	0	0	0	0	500	488
3931	0	0	0	0	489	501
3932	0	0	0	0	481	512
3933	0	0	0	0	481	512
3934	0	0	0	0	492	511
3935	0	0	0	0	504	513
3936	0	0	0	0	511	512
3937	0	0	0	0	517	509
3938	0	0	0	0	521	503
3939	0	0	0	0	519	502
3940	0	0	0	0	510	506
3941	0	0	0	0	504	505
3942	0	0	0	0	495	507
3943	0	0	0	0	494	508
3944	0	0	0	0	499	506
3945	0	0	0	0	506	508
3946	0	0	0	0	513	508
3947	0	0	0	0	519	509
3948	0	0	0	0	525	512
3949	0	0	0	0	528	513
3950	0	0	0	0	530	511
3951	0	0	0	0	536	511
3952	0	0	0	0	537	512
3953	0	0	0	0	532	512
3954	0	0	0	0	526	511
3955	0	0	0	0	521	514
3956	0	0	0	0	513	512
3957	0	0	0	0	505	517
3958	0	0	0	0	497	514
3959	0	0	0	0	486	516
3960	0	0	0	0	484	516
3961	0	0	0	0	484	516
3962	0	0	0	0	486	516
3963	0	0	0	0	488	515
3964	0	0	0	0	492	510
3965	0	0	0	0	495	512
3966	0	0	0	0	498	513
3967	0	0	0	0	503	512
3968	0	0	0	0	509	512
3969	0	0	0	0	518	513
3970	0	0	0	0	523	515
3971	0	0	0	0	524	512
3972	0	0	0	0	524	513
3973	0	0	0	0	528	510
3974	0	0	0	0	534	505
3975	0	0	0	0	545	510
3976	0	0	0	0	551	513
3977	0	0	0	0	544	518
3978	0	0	0	0	533	517
3979	0	0	0	0	514	520
3980	0	0	0	0	499	525
3981	0	0	0	0	482	527
3982	0	0	0	0	470	520
3983	0	0	0	0	461	511
3984	0	0	0	0	463	502
3985	0	0	0	0	479	495
3986	0	0	0	0	492	487
3987	0	0	0	0	509	487
3988	0	0	0	0	525	495
3989	0	0	0	0	526	480
3990	0	0	0	0	524	477
3991	0	0	0	0	518	492
3992	0	0	0	0	511	509
3993	0	0	0	0	508	525
3994	0	0	0	0	503	534
3995	0	0	0	0	506	539
3996	0	0	0	0	507	544
3997	0	0	0	0	511	548
3998	0	0	0	0	512	553
3999	0	0	0	0	511	551
4000	0	0	0	0	511	548
4001	0	0	0	0	517	548
4002	0	0	0	0	517	547
4003	0	0	0	0	517	539
4004	0	0	0	0	516	537
4005	0	0	0	0	517	527
4006	0	0	0	0	515	511
4007	0	0	0	0	513	497
4008	0	0	0	0	510	490
4009	0	0	0	0	511	486
4010	0	0	0	0	510	485
4011	0	0	0	0	509	488
4012	0	0	0	0	509	494
4013	0	0	0	0	511	499
4014	0	0	0	0	514	501
4015	0	0	0	0	518	501
4016	0	0	0	0	519	499
4017	0	0	0	0	527	499
4018	0	0	0	0	531	503
4019	0	0	0	0	531	508
4020	0	0	0	0	525	510
4021	0	0	0	0	516	504
4022	0	0	0	0	504	507
4023	0	0	0	0	499	511
4024	0	0	0	0	492	515
4025	0	0	0	0	487	515
4026	0	0	0	0	487	515
4027	0	0	0	0	493	514
4028	0	0	0	0	492	513
4029	0	0	0	0	497	512
4030	0	0	0	0	503	510
4031	0	0	0	0	506	508
4032	0	0	0	0	503	512
4033	0	0	0	0	503	514
4034	0	0	0	0	500	513
4035	0	0	0	0	504	513
4036	0	0	0	0	507	509
4037	0	0	0	0	513	510
4038	0	0	0	0	516	516
4039	0	0	0	0	523	517
4040	0	0	0	0	542	504
4041	0	0	0	0	549	501
4042	0	0	0	0	547	507
4043	0	0	0	0	541	508
4044	0	0	0	0	529	511
4045	0	0	0	0	513	520
4046	0	0	0	0	498	526
4047	0	0	0	0	491	535
4048	0	0	0	0	484	536
4049	0	0	0	0	477	536
4050	0	0	0	0	476	530
4051	0	0	0	0	485	524
4052	0	0	0	0	487	520
4053	0	0	0	0	491	513
4054	0	0	0	0	494	504
4055	0	0	0	0	496	494
4056	0	0	0	0	495	492
4057	0	0	0	0	494	501
4058	0	0	0	0	508	507
4059	0	0	0	0	512	504
4060	0	0	0	0	523	498
4061	0	0	0	0	526	483
4062	0	0	0	0	527	462
4063	0	0	0	0	526	445
4064	0	0	0	0	524	428
4065	0	0	0	0	524	426
4066	0	0	0	0	524	467
4067	0	0	0	0	521	542
4068	0	0	0	0	519	608
4069	0	0	0	0	523	647
4070	0	0	0	0	520	670
4071	0	0	0	0	514	659
4072	0	0	0	0	509	629
4073	0	0	0	0	505	591
4074	0	0	0	0	505	527
4075	0	0	0	0	502	487
4076	0	0	0	0	502	466
4077	0	0	0	0	502	456
4078	0	0	0	0	504	450
4079	0	0	0	0	509	435
4080	0	0	0	0	516	430
4081	0	0	0	0	513	440
4082	0	0	0	0	513	463
4083	0	0	0	0	514	487
4084	0	0	0	0	511	515
4085	0	0	0	0	505	544
4086	0	0	0	0	500	563
4087	0	0	0	0	499	560
4088	0	0	0	0	496	536
4089	0	0	0	0	496	517
4090	0	0	0	0	497	510
4091	0	0	0	0	504	504
4092	0	0	0	0	504	504
4093	0	0	0	0	504	508
4094	0	0	0	0	510	511
4095	0	0	0	0	519	516
4096	0	0	0	0	526	519
4097	0	0	0	0	527	511
4098	0	0	0	0	522	499
4099	0	0	0	0	520	498
4100	0	0	0	0	519	503
4101	0	0	0	0	510	510
4102	0	0	0	0	503	514
4103	0	0	0	0	499	518
4104	0	0	0	0	494	514
4105	0	0	0	0	493	511
4106	0	0	0	0	494	513
4107	0	0	0	0	500	512
4108	0	0	0	0	505	507
4109	0	0	0	0	508	508
4110	0	0	0	0	512	509
4111	0	0	0	0	513	511
4112	0	0	0	0	515	513
4113	0	0	0	0	518	515
4114	0	0	0	0	519	512
4115	0	0	0	0	519	496
4116	0	0	0	0	519	487
4117	0	0	0	0	520	489
4118	0	0	0	0	518	496
4119	0	0	0	0	513	504
4120	0	0	0	0	508	518
4121	0	0	0	0	504	528
4122	0	0	0	0	503	536
4123	0	0	0	0	504	544
4124	0	0	0	0	507	543
4125	0	0	0	0	510	535
4126	0	0	0	0	508	515
4127	0	0	0	0	508	481
4128	0	0	0	0	508	455
4129	0	0	0	0	507	473
4130	0	0	0	0	508	499
4131	0	0	0	0	510	524
4132	0	0	0	0	514	550
4133	0	0	0	0	520	565
4134	0	0	0	0	519	566
4135	0	0	0	0	532	558
4136	0	0	0	0	542	540
4137	0	0	0	0	536	519
4138	0	0	0	0	525	507
4139	0	0	0	0	512	502
4140	0	0	0	0	498	501
4141	0	0	0	0	485	496
4142	0	0	0	0	471	495
4143	0	0	0	0	467	497
4144	0	0	0	0	467	499
4145	0	0	0	0	468	499
4146	0	0	0	0	478	501
4147	0	0	0	0	493	504
4148	0	0	0	0	515	502
4149	0	0	0	0	531	500
4150	0	0	0	0	539	503
4151	0	0	0	0	535	502
4152	0	0	0	0	529	507
4153	0	0	0	0	523	508
4154	0	0	0	0	513	511
4155	0	0	0	0	502	511
4156	0	0	0	0	496	484
4157	0	0	0	0	490	454
4158	0	0	0	0	488	455
4159	0	0	0	0	497	462
4160	0	0	0	0	504	483
4161	0	0	0	0	512	521
4162	0	0	0	0	519	564
4163	0	0	0	0	520	609
4164	0	0	0	0	520	622
4165	0	0	0	0	520	611
4166	0	0	0	0	519	595
4167	0	0	0	0	523	579
4168	0	0	0	0	524	548
4169	0	0	0	0	521	510
4170	0	0	0	0	518	479
4171	0	0	0	0	514	463
4172	0	0	0	0	508	453
4173	0	0	0	0	502	453
4174	0	0	0	0	499	460
4175	0	0	0	0	499	470
4176	0	0	0	0	504	484
4177	0	0	0	0	512	510
4178	0	0	0	0	520	528
4179	0	0	0	0	525	545
4180	0	0	0	0	528	543
4181	0	0	0	0	526	538
4182	0	0	0	0	521	526
4183	0	0	0	0	513	519
4184	0	0	0	0	502	509
4185	0	0	0	0	494	495
4186	0	0	0	0	487	487
4187	0	0	0	0	488	471
4188	0	0	0	0	487	480
4189	0	0	0	0	495	490
4190	0	0	0	0	503	494
4191	0	0	0	0	515	507
4192	0	0	0	0	518	524
4193	0	0	0	0	518	534
4194	0	0	0	0	519	544
4195	0	0	0	0	514	541
4196	0	0	0	0	511	532
4197	0	0	0	0	507	519
4198	0	0	0	0	505	515
4199	0	0	0	0	504	509
4200	0	0	0	0	505	505
4201	0	0	0	0	508	499
4202	0	0	0	0	511	481
4203	0	0	0	0	519	461
4204	0	0	0	0	522	460
4205	0	0	0	0	524	459
4206	0	0	0	0	520	460
4207	0	0	0	0	515	491
4208	0	0	0	0	509	536
4209	0	0	0	0	506	570
4210	0	0	0	0	511	594
4211	0	0	0	0	521	594
4212	0	0	0	0	536	584
4213	0	0	0	0	537	573
4214	0	0	0	0	534	547
4215	0	0	0	0	527	513
4216	0	0	0	0	513	496
4217	0	0	0	0	490	487
4218	0	0	0	0	463	488
4219	0	0	0	0	449	487
4220	0	0	0	0	442	488
4221	0	0	0	0	446	493
4222	0	0	0	0	455	496
4223	0	0	0	0	475	498
4224	0	0	0	0	500	500
4225	0	0	0	0	515	500
4226	0	0	0	0	524	496
4227	0	0	0	0	538	490
4228	0	0	0	0	543	489
4229	0	0	0	0	545	499
4230	0	0	0	0	541	495
4231	0	0	0	0	534	499
4232	0	0	0	0	528	512
4233	0	0	0	0	521	531
4234	0	0	0	0	519	544
4235	0	0	0	0	509	545
4236	0	0	0	0	501	523
4237	0	0	0	0	503	455
4238	0	0	0	0	504	430
4239	0	0	0	0	511	467
4240	0	0	0	0	519	515
4241	0	0	0	0	524	561
4242	0	0	0	0	538	587
4243	0	0	0	0	542	596
4244	0	0	0	0	536	599
4245	0	0	0	0	527	591
4246	0	0	0	0	513	562
4247	0	0	0	0	497	519
4248	0	0	0	0	486	483
4249	0	0	0	0	476	473
4250	0	0	0	0	474	478
4251	0	0	0	0	469	483
4252	0	0	0	0	472	489
4253	0	0	0	0	484	490
4254	0	0	0	0	503	487
4255	0	0	0	0	513	493
4256	0	0	0	0	511	499
4257	0	0	0	0	510	492
4258	0	0	0	0	518	493
4259	0	0	0	0	532	503
4260	0	0	0	0	544	519
4261	0	0	0	0	550	530
4262	0	0	0	0	543	534
4263	0	0	0	0	530	529
4264	0	0	0	0	514	522
4265	0	0	0	0	497	524
4266	0	0	0	0	481	517
4267	0	0	0	0	468	507
4268	0	0	0	0	464	505
4269	0	0	0	0	467	504
4270	0	0	0	0	477	491
4271	0	0	0	0	489	467
4272	0	0	0	0	506	478
4273	0	0	0	0	520	500
4274	0	0	0	0	529	525
4275	0	0	0	0	531	541
4276	0	0	0	0	529	545
4277	0	0	0	0	527	550
4278	0	0	0	0	523	546
4279	0	0	0	0	522	536
4280	0	0	0	0	524	518
4281	0	0	0	0	527	500
4282	0	0	0	0	525	498
4283	0	0	0	0	523	502
4284	0	0	0	0	519	507
4285	0	0	0	0	518	512
4286	0	0	0	0	515	511
4287	0	0	0	0	512	511
4288	0	0	0	0	505	510
4289	0	0	0	0	504	512
4290	0	0	0	0	505	507
4291	0	0	0	0	508	503
4292	0	0	0	0	509	503
4293	0	0	0	0	509	503
4294	0	0	0	0	509	503
4295	0	0	0	0	511	508
4296	0	0	0	0	512	516
4297	0	0	0	0	505	520
4298	0	0	0	0	496	521
4299	0	0	0	0	492	525
4300	0	0	0	0	492	518
4301	0	0	0	0	497	511
4302	0	0	0	0	504	504
4303	0	0	0	0	512	496
4304	0	0	0	0	516	503
4305	0	0	0	0	519	507
4306	0	0	0	0	526	508
4307	0	0	0	0	527	505
4308	0	0	0	0	523	501
4309	0	0	0	0	514	501
4310	0	0	0	0	504	516
4311	0	0	0	0	495	531
4312	0	0	0	0	487	541
4313	0	0	0	0	483	547
4314	0	0	0	0	475	549
4315	0	0	0	0	479	547
4316	0	0	0	0	494	536
4317	0	0	0	0	504	522
4318	0	0	0	0	515	507
4319	0	0	0	0	523	499
4320	0	0	0	0	529	499
4321	0	0	0	0	533	502
4322	0	0	0	0	528	498
4323	0	0	0	0	525	494
4324	0	0	0	0	520	494
4325	0	0	0	0	517	501
4326	0	0	0	0	516	502
4327	0	0	0	0	514	506
4328	0	0	0	0	515	509
4329	0	0	0	0	520	513
4330	0	0	0	0	529	519
4331	0	0	0	0	533	520
4332	0	0	0	0	527	518
4333	0	0	0	0	514	515
4334	0	0	0	0	504	505
4335	0	0	0	0	493	484
4336	0	0	0	0	486	469
4337	0	0	0	0	476	471
4338	0	0	0	0	476	489
4339	0	0	0	0	478	512
4340	0	0	0	0	488	534
4341	0	0	0	0	497	549
4342	0	0	0	0	511	563
4343	0	0	0	0	523	555
4344	0	0	0	0	534	536
4345	0	0	0	0	537	525
4346	0	0	0	0	536	511
4347	0	0	0	0	531	510
4348	0	0	0	0	522	510
4349	0	0	0	0	507	509
4350	0	0	0	0	495	509
4351	0	0	0	0	482	512
4352	0	0	0	0	480	513
4353	0	0	0	0	478	511
4354	0	0	0	0	484	507
4355	0	0	0	0	496	507
4356	0	0	0	0	505	510
4357	0	0	0	0	515	505
4358	0	0	0	0	519	504
4359	0	0	0	0	519	500
4360	0	0	0	0	517	496
4361	0	0	0	0	512	493
4362	0	0	0	0	513	491
4363	0	0	0	0	511	495
4364	0	0	0	0	512	504
4365	0	0	0	0	522	504
4366	0	0	0	0	529	516
4367	0	0	0	0	534	529
4368	0	0	0	0	531	539
4369	0	0	0	0	523	541
4370	0	0	0	0	519	543
4371	0	0	0	0	515	542
4372	0	0	0	0	512	531
4373	0	0	0	0	507	519
4374	0	0	0	0	505	510
4375	0	0	0	0	500	502
4376	0	0	0	0	499	497
4377	0	0	0	0	496	492
4378	0	0	0	0	494	486
4379	0	0	0	0	492	491
4380	0	0	0	0	492	499
4381	0	0	0	0	495	510
4382	0	0	0	0	504	504
4383	0	0	0	0	510	504
4384	0	0	0	0	519	515
4385	0	0	0	0	524	520
4386	0	0	0	0	527	527
4387	0	0	0	0	524	531
4388	0	0	0	0	526	530
4389	0	0	0	0	529	523
4390	0	0	0	0	529	517
4391	0	0	0	0	526	511
4392	0	0	0	0	519	505
4393	0	0	0	0	507	497
4394	0	0	0	0	499	491
4395	0	0	0	0	494	496
4396	0	0	0	0	490	511
4397	0	0	0	0	490	527
4398	0	0	0	0	487	534
4399	0	0	0	0	488	514
4400	0	0	0	0	492	499
4401	0	0	0	0	496	507
4402	0	0	0	0	497	521
4403	0	0	0	0	497	531
4404	0	0	0	0	502	530
4405	0	0	0	0	511	534
4406	0	0	0	0	518	538
4407	0	0	0	0	525	532
4408	0	0	0	0	527	523
4409	0	0	0	0	523	511
4410	0	0	0	0	520	502
4411	0	0	0	0	521	496
4412	0	0	0	0	519	494
4413	0	0	0	0	516	495
4414	0	0	0	0	513	494
4415	0	0	0	0	513	471
4416	0	0	0	0	518	448
4417	0	0	0	0	518	457
4418	0	0	0	0	524	482
4419	0	0	0	0	518	511
4420	0	0	0	0	512	530
4421	0	0	0	0	505	533
4422	0	0	0	0	499	530
4423	0	0	0	0	494	543
4424	0	0	0	0	491	547
4425	0	0	0	0	494	550
4426	0	0	0	0	499	552
4427	0	0	0	0	505	547
4428	0	0	0	0	513	535
4429	0	0	0	0	514	523
4430	0	0	0	0	514	511
4431	0	0	0	0	513	500
4432	0	0	0	0	512	492
4433	0	0	0	0	511	490
4434	0	0	0	0	508	496
4435	0	0	0	0	508	504
4436	0	0	0	0	512	515
4437	0	0	0	0	515	522
4438	0	0	0	0	519	519
4439	0	0	0	0	517	512
4440	0	0	0	0	515	515
4441	0	0	0	0	513	510
4442	0	0	0	0	508	496
4443	0	0	0	0	504	479
4444	0	0	0	0	502	473
4445	0	0	0	0	504	464
4446	0	0	0	0	511	454
4447	0	0	0	0	520	455
4448	0	0	0	0	539	456
4449	0	0	0	0	558	489
4450	0	0	0	0	556	543
4451	0	0	0	0	540	586
4452	0	0	0	0	518	614
4453	0	0	0	0	494	623
4454	0	0	0	0	468	604
4455	0	0	0	0	443	575
4456	0	0	0	0	432	546
4457	0	0	0	0	432	514
4458	0	0	0	0	447	489
4459	0	0	0	0	468	479
4460	0	0	0	0	496	480
4461	0	0	0	0	516	485
4462	0	0	0	0	526	492
4463	0	0	0	0	531	498
4464	0	0	0	0	535	497
4465	0	0	0	0	534	496
4466	0	0	0	0	532	497
4467	0	0	0	0	528	498
4468	0	0	0	0	528	500
4469	0	0	0	0	527	501
4470	0	0	0	0	527	503
4471	0	0	0	0	523	504
4472	0	0	0	0	522	506
4473	0	0	0	0	522	508
4474	0	0	0	0	518	502
4475	0	0	0	0	519	502
4476	0	0	0	0	526	504
4477	0	0	0	0	528	508
4478	0	0	0	0	528	509
4479	0	0	0	0	522	502
4480	0	0	0	0	512	504
4481	0	0	0	0	500	515
4482	0	0	0	0	486	531
4483	0	0	0	0	473	542
4484	0	0	0	0	470	543
4485	0	0	0	0	473	534
4486	0	0	0	0	480	529
4487	0	0	0	0	495	527
4488	0	0	0	0	504	525
4489	0	0	0	0	515	518
4490	0	0	0	0	524	516
4491	0	0	0	0	525	513
4492	0	0	0	0	518	515
4493	0	0	0	0	513	508
4494	0	0	0	0	511	499
4495	0	0	0	0	507	494
4496	0	0	0	0	505	496
4497	0	0	0	0	508	502
4498	0	0	0	0	512	498
4499	0	0	0	0	513	486
4500	0	0	0	0	516	488
4501	0	0	0	0	515	512
4502	0	0	0	0	513	527
4503	0	0	0	0	515	532
4504	0	0	0	0	514	534
4505	0	0	0	0	512	538
4506	0	0	0	0	512	546
4507	0	0	0	0	513	539
4508	0	0	0	0	513	521
4509	0	0	0	0	511	508
4510	0	0	0	0	509	492
4511	0	0	0	0	511	487
4512	0	0	0	0	509	485
4513	0	0	0	0	508	490
4514	0	0	0	0	510	502
4515	0	0	0	0	512	519
4516	0	0	0	0	512	524
4517	0	0	0	0	511	518
4518	0	0	0	0	514	518
4519	0	0	0	0	515	513
4520	0	0	0	0	513	498
4521	0	0	0	0	510	506
4522	0	0	0	0	506	521
4523	0	0	0	0	507	531
4524	0	0	0	0	506	536
4525	0	0	0	0	508	536
4526	0	0	0	0	514	529
4527	0	0	0	0	511	523
4528	0	0	0	0	511	520
4529	0	0	0	0	508	510
4530	0	0	0	0	507	500
4531	0	0	0	0	499	499
4532	0	0	0	0	493	502
4533	0	0	0	0	496	503
4534	0	0	0	0	495	507
4535	0	0	0	0	501	504
4536	0	0	0	0	501	504
4537	0	0	0	0	512	504
4538	0	0	0	0	520	504
4539	0	0	0	0	527	506
4540	0	0	0	0	533	508
4541	0	0	0	0	535	511
4542	0	0	0	0	534	519
4543	0	0	0	0	529	521
4544	0	0	0	0	519	516
4545	0	0	0	0	505	511
4546	0	0	0	0	497	506
4547	0	0	0	0	485	507
4548	0	0	0	0	480	508
4549	0	0	0	0	477	509
4550	0	0	0	0	481	514
4551	0	0	0	0	491	516
4552	0	0	0	0	498	520
4553	0	0	0	0	508	526
4554	0	0	0	0	517	521
4555	0	0	0	0	523	514
4556	0	0	0	0	523	509
4557	0	0	0	0	524	511
4558	0	0	0	0	523	510
4559	0	0	0	0	521	496
4560	0	0	0	0	518	486
4561	0	0	0	0	517	490
4562	0	0	0	0	516	504
4563	0	0	0	0	519	504
4564	0	0	0	0	515	487
4565	0	0	0	0	508	476
4566	0	0	0	0	499	499
4567	0	0	0	0	494	538
4568	0	0	0	0	488	563
4569	0	0	0	0	488	567
4570	0	0	0	0	491	568
4571	0	0	0	0	496	569
4572	0	0	0	0	505	563
4573	0	0	0	0	513	547
4574	0	0	0	0	513	523
4575	0	0	0	0	512	496
4576	0	0	0	0	510	480
4577	0	0	0	0	503	461
4578	0	0	0	0	508	463
4579	0	0	0	0	508	471
4580	0	0	0	0	516	484
4581	0	0	0	0	519	474
4582	0	0	0	0	521	475
4583	0	0	0	0	520	500
4584	0	0	0	0	521	527
4585	0	0	0	0	522	552
4586	0	0	0	0	525	566
4587	0	0	0	0	532	562
4588	0	0	0	0	532	558
4589	0	0	0	0	526	549
4590	0	0	0	0	519	526
4591	0	0	0	0	510	503
4592	0	0	0	0	503	487
4593	0	0	0	0	506	485
4594	0	0	0	0	511	489
4595	0	0	0	0	511	487
4596	0	0	0	0	508	491
4597	0	0	0	0	513	498
4598	0	0	0	0	517	499
4599	0	0	0	0	506	499
4600	0	0	0	0	493	498
4601	0	0	0	0	483	485
4602	0	0	0	0	480	488
4603	0	0	0	0	485	495
4604	0	0	0	0	496	504
4605	0	0	0	0	508	520
4606	0	0	0	0	512	537
4607	0	0	0	0	519	551
4608	0	0	0	0	512	552
4609	0	0	0	0	507	545
4610	0	0	0	0	500	531
4611	0	0	0	0	496	524
4612	0	0	0	0	493	517
4613	0	0	0	0	495	508
4614	0	0	0	0	498	503
4615	0	0	0	0	512	497
4616	0	0	0	0	520	481
4617	0	0	0	0	526	478
4618	0	0	0	0	527	496
4619	0	0	0	0	523	516
4620	0	0	0	0	517	534
4621	0	0	0	0	512	543
4622	0	0	0	0	508	544
4623	0	0	0	0	505	542
4624	0	0	0	0	509	534
4625	0	0	0	0	518	525
4626	0	0	0	0	521	511
4627	0	0	0	0	518	504
4628	0	0	0	0	519	499
4629	0	0	0	0	519	498
4630	0	0	0	0	517	500
4631	0	0	0	0	513	500
4632	0	0	0	0	509	503
4633	0	0	0	0	512	507
4634	0	0	0	0	510	506
4635	0	0	0	0	506	509
4636	0	0	0	0	509	511
4637	0	0	0	0	506	511
4638	0	0	0	0	501	512
4639	0	0	0	0	495	514
4640	0	0	0	0	497	512
4641	0	0	0	0	502	512
4642	0	0	0	0	521	505
4643	0	0	0	0	535	506
4644	0	0	0	0	538	509
4645	0	0	0	0	540	510
4646	0	0	0	0	529	497
4647	0	0	0	0	513	498
4648	0	0	0	0	491	505
4649	0	0	0	0	467	516
4650	0	0	0	0	451	528
4651	0	0	0	0	449	532
4652	0	0	0	0	462	534
4653	0	0	0	0	486	539
4654	0	0	0	0	518	532
4655	0	0	0	0	537	520
4656	0	0	0	0	543	511
4657	0	0	0	0	538	505
4658	0	0	0	0	529	503
4659	0	0	0	0	515	505
4660	0	0	0	0	500	507
4661	0	0	0	0	496	509
4662	0	0	0	0	497	510
4663	0	0	0	0	502	510
4664	0	0	0	0	511	511
4665	0	0	0	0	516	508
4666	0	0	0	0	518	499
4667	0	0	0	0	520	497
4668	0	0	0	0	518	503
4669	0	0	0	0	513	507
4670	0	0	0	0	519	512
4671	0	0	0	0	515	520
4672	0	0	0	0	513	521
4673	0	0	0	0	512	525
4674	0	0	0	0	511	525
4675	0	0	0	0	513	518
4676	0	0	0	0	511	512
4677	0	0	0	0	507	510
4678	0	0	0	0	505	511
4679	0	0	0	0	503	512
4680	0	0	0	0	499	513
4681	0	0	0	0	504	515
4682	0	0	0	0	513	519
4683	0	0	0	0	517	522
4684	0	0	0	0	516	519
4685	0	0	0	0	514	511
4686	0	0	0	0	517	505
4687	0	0	0	0	513	506
4688	0	0	0	0	509	505
4689	0	0	0	0	504	495
4690	0	0	0	0	498	480
4691	0	0	0	0	497	452
4692	0	0	0	0	501	436
4693	0	0	0	0	508	453
4694	0	0	0	0	512	480
4695	0	0	0	0	515	525
4696	0	0	0	0	516	574
4697	0	0	0	0	516	608
4698	0	0	0	0	515	622
4699	0	0	0	0	514	614
4700	0	0	0	0	515	583
4701	0	0	0	0	512	545
4702	0	0	0	0	510	518
4703	0	0	0	0	510	496
4704	0	0	0	0	512	485
4705	0	0	0	0	510	479
4706	0	0	0	0	510	482
4707	0	0	0	0	512	488
4708	0	0	0	0	513	492
4709	0	0	0	0	513	494
4710	0	0	0	0	520	497
4711	0	0	0	0	527	500
4712	0	0	0	0	532	503
4713	0	0	0	0	528	502
4714	0	0	0	0	521	504
4715	0	0	0	0	518	504
4716	0	0	0	0	510	507
4717	0	0	0	0	501	507
4718	0	0	0	0	488	507
4719	0	0	0	0	479	505
4720	0	0	0	0	473	504
4721	0	0	0	0	472	503
4722	0	0	0	0	482	500
4723	0	0	0	0	494	499
4724	0	0	0	0	498	496
4725	0	0	0	0	503	494
4726	0	0	0	0	511	493
4727	0	0	0	0	517	507
4728	0	0	0	0	519	527
4729	0	0	0	0	519	529
4730	0	0	0	0	521	532
4731	0	0	0	0	525	541
4732	0	0	0	0	526	550
4733	0	0	0	0	523	545
4734	0	0	0	0	518	544
4735	0	0	0	0	513	541
4736	0	0	0	0	511	534
4737	0	0	0	0	507	524
4738	0	0	0	0	506	513
4739	0	0	0	0	504	502
4740	0	0	0	0	504	489
4741	0	0	0	0	503	472
4742	0	0	0	0	506	455
4743	0	0	0	0	511	446
4744	0	0	0	0	516	462
4745	0	0	0	0	518	494
4746	0	0	0	0	526	523
4747	0	0	0	0	546	538
4748	0	0	0	0	568	549
4749	0	0	0	0	562	556
4750	0	0	0	0	544	556
4751	0	0	0	0	521	550
4752	0	0	0	0	488	535
4753	0	0	0	0	460	524
4754	0	0	0	0	434	519
4755	0	0	0	0	418	518
4756	0	0	0	0	418	514
4757	0	0	0	0	444	508
4758	0	0	0	0	472	497
4759	0	0	0	0	502	496
4760	0	0	0	0	524	499
4761	0	0	0	0	537	499
4762	0	0	0	0	542	500
4763	0	0	0	0	540	502
4764	0	0	0	0	545	502
4765	0	0	0	0	547	504
4766	0	0	0	0	537	506
4767	0	0	0	0	533	506
4768	0	0	0	0	527	508
4769	0	0	0	0	519	507
4770	0	0	0	0	510	508
4771	0	0	0	0	505	510
4772	0	0	0	0	502	510
4773	0	0	0	0	498	512
4774	0	0	0	0	492	511
4775	0	0	0	0	498	510
4776	0	0	0	0	503	509
4777	0	0	0	0	507	502
4778	0	0	0	0	513	502
4779	0	0	0	0	515	508
4780	0	0	0	0	515	511
4781	0	0	0	0	517	508
4782	0	0	0	0	518	507
4783	0	0	0	0	517	516
4784	0	0	0	0	516	523
4785	0	0	0	0	518	528
4786	0	0	0	0	521	521
4787	0	0	0	0	524	499
4788	0	0	0	0	522	496
4789	0	0	0	0	520	510
4790	0	0	0	0	515	521
4791	0	0	0	0	506	532
4792	0	0	0	0	499	540
4793	0	0	0	0	495	542
4794	0	0	0	0	492	542
4795	0	0	0	0	492	536
4796	0	0	0	0	498	525
4797	0	0	0	0	507	507
4798	0	0	0	0	510	497
4799	0	0	0	0	513	483
4800	0	0	0	0	514	475
4801	0	0	0	0	509	489
4802	0	0	0	0	504	511
4803	0	0	0	0	504	524
4804	0	0	0	0	504	530
4805	0	0	0	0	507	532
4806	0	0	0	0	511	534
4807	0	0	0	0	518	530
4808	0	0	0	0	524	522
4809	0	0	0	0	523	508
4810	0	0	0	0	523	500
4811	0	0	0	0	519	488
4812	0	0	0	0	513	485
4813	0	0	0	0	508	487
4814	0	0	0	0	501	483
4815	0	0	0	0	502	481
4816	0	0	0	0	498	493
4817	0	0	0	0	497	508
4818	0	0	0	0	496	521
4819	0	0	0	0	497	536
4820	0	0	0	0	501	543
4821	0	0	0	0	511	544
4822	0	0	0	0	517	527
4823	0	0	0	0	519	516
4824	0	0	0	0	526	515
4825	0	0	0	0	538	518
4826	0	0	0	0	541	519
4827	0	0	0	0	531	519
4828	0	0	0	0	517	518
4829	0	0	0	0	500	516
4830	0	0	0	0	490	515
4831	0	0	0	0	480	511
4832	0	0	0	0	474	508
4833	0	0	0	0	474	503
4834	0	0	0	0	480	503
4835	0	0	0	0	491	502
4836	0	0	0	0	498	496
4837	0	0	0	0	508	490
4838	0	0	0	0	517	491
4839	0	0	0	0	527	499
4840	0	0	0	0	533	512
4841	0	0	0	0	539	519
4842	0	0	0	0	541	525
4843	0	0	0	0	537	534
4844	0	0	0	0	529	537
4845	0	0	0	0	519	532
4846	0	0	0	0	504	520
4847	0	0	0	0	494	514
4848	0	0	0	0	487	506
4849	0	0	0	0	480	505
4850	0	0	0	0	483	508
4851	0	0	0	0	488	506
4852	0	0	0	0	497	510
4853	0	0	0	0	508	511
4854	0	0	0	0	521	512
4855	0	0	0	0	536	513
4856	0	0	0	0	545	510
4857	0	0	0	0	545	509
4858	0	0	0	0	539	510
4859	0	0	0	0	521	508
4860	0	0	0	0	505	507
4861	0	0	0	0	488	512
4862	0	0	0	0	477	511
4863	0	0	0	0	470	512
4864	0	0	0	0	463	511
4865	0	0	0	0	472	513
4866	0	0	0	0	487	518
4867	0	0	0	0	501	517
4868	0	0	0	0	512	513
4869	0	0	0	0	518	512
4870	0	0	0	0	520	512
4871	0	0	0	0	526	510
4872	0	0	0	0	535	509
4873	0	0	0	0	547	511
4874	0	0	0	0	556	511
4875	0	0	0	0	553	511
4876	0	0	0	0	542	507
4877	0	0	0	0	525	499
4878	0	0	0	0	508	498
4879	0	0	0	0	487	503
4880	0	0	0	0	475	505
4881	0	0	0	0	469	494
4882	0	0	0	0	464	491
4883	0	0	0	0	469	497
4884	0	0	0	0	481	502
4885	0	0	0	0	496	526
4886	0	0	0	0	510	544
4887	0	0	0	0	516	554
4888	0	0	0	0	524	559
4889	0	0	0	0	531	555
4890	0	0	0	0	535	545
4891	0	0	0	0	538	526
4892	0	0	0	0	537	508
4893	0	0	0	0	550	501
4894	0	0	0	0	559	500
4895	0	0	0	0	551	501
4896	0	0	0	0	531	502
4897	0	0	0	0	508	507
4898	0	0	0	0	481	506
4899	0	0	0	0	456	507
4900	0	0	0	0	443	504
4901	0	0	0	0	440	505
4902	0	0	0	0	449	507
4903	0	0	0	0	464	510
4904	0	0	0	0	487	510
4905	0	0	0	0	519	509
4906	0	0	0	0	530	508
4907	0	0	0	0	534	509
4908	0	0	0	0	531	510
4909	0	0	0	0	530	508
4910	0	0	0	0	524	510
4911	0	0	0	0	523	512
4912	0	0	0	0	524	511
4913	0	0	0	0	530	511
4914	0	0	0	0	536	510
4915	0	0	0	0	550	508
4916	0	0	0	0	550	502
4917	0	0	0	0	537	499
4918	0	0	0	0	526	487
4919	0	0	0	0	507	477
4920	0	0	0	0	492	485
4921	0	0	0	0	480	508
4922	0	0	0	0	471	534
4923	0	0	0	0	467	554
4924	0	0	0	0	470	562
4925	0	0	0	0	483	556
4926	0	0	0	0	504	548
4927	0	0	0	0	527	540
4928	0	0	0	0	545	521
4929	0	0	0	0	550	503
4930	0	0	0	0	536	496
4931	0	0	0	0	515	496
4932	0	0	0	0	512	495
4933	0	0	0	0	504	499
4934	0	0	0	0	486	498
4935	0	0	0	0	472	492
4936	0	0	0	0	468	489
4937	0	0	0	0	463	497
4938	0	0	0	0	483	495
4939	0	0	0	0	508	495
4940	0	0	0	0	519	505
4941	0	0	0	0	513	518
4942	0	0	0	0	509	522
4943	0	0	0	0	502	528
4944	0	0	0	0	497	524
4945	0	0	0	0	497	524
4946	0	0	0	0	498	531
4947	0	0	0	0	497	536
4948	0	0	0	0	504	536
4949	0	0	0	0	519	536
4950	0	0	0	0	529	528
4951	0	0	0	0	537	516
4952	0	0	0	0	551	503
4953	0	0	0	0	559	484
4954	0	0	0	0	560	476
4955	0	0	0	0	569	478
4956	0	0	0	0	563	494
4957	0	0	0	0	551	512
4958	0	0	0	0	535	518
4959	0	0	0	0	528	522
4960	0	0	0	0	527	520
4961	0	0	0	0	517	520
4962	0	0	0	0	496	518
4963	0	0	0	0	472	516
4964	0	0	0	0	452	520
4965	0	0	0	0	434	524
4966	0	0	0	0	427	529
4967	0	0	0	0	423	525
4968	0	0	0	0	427	520
4969	0	0	0	0	444	517
4970	0	0	0	0	479	519
4971	0	0	0	0	513	513
4972	0	0	0	0	541	511
4973	0	0	0	0	550	508
4974	0	0	0	0	546	506
4975	0	0	0	0	541	507
4976	0	0	0	0	536	505
4977	0	0	0	0	528	505
4978	0	0	0	0	524	503
4979	0	0	0	0	521	505
4980	0	0	0	0	519	507
4981	0	0	0	0	519	507
4982	0	0	0	0	518	506
4983	0	0	0	0	519	507
4984	0	0	0	0	516	508
4985	0	0	0	0	519	510
4986	0	0	0	0	542	512
4987	0	0	0	0	571	510
4988	0	0	0	0	569	509
4989	0	0	0	0	556	510
4990	0	0	0	0	534	513
4991	0	0	0	0	512	514
4992	0	0	0	0	483	514
4993	0	0	0	0	466	518
4994	0	0	0	0	456	518
4995	0	0	0	0	447	512
4996	0	0	0	0	459	514
4997	0	0	0	0	490	513
4998	0	0	0	0	515	512
4999	0	0	0	0	525	513
5000	0	0	0	0	529	516
5001	0	0	0	0	518	516
5002	0	0	0	0	510	519
5003	0	0	0	0	506	517
5004	0	0	0	0	502	515
5005	0	0	0	0	504	515
5006	0	0	0	0	509	512
5007	0	0	0	0	527	510
5008	0	0	0	0	529	510
5009	0	0	0	0	527	511
5010	0	0	0	0	527	510
5011	0	0	0	0	515	507
5012	0	0	0	0	505	504
5013	0	0	0	0	498	503
5014	0	0	0	0	491	499
5015	0	0	0	0	484	499
5016	0	0	0	0	488	505
5017	0	0	0	0	486	510
5018	0	0	0	0	481	519
5019	0	0	0	0	483	522
5020	0	0	0	0	486	520
5021	0	0	0	0	490	521
5022	0	0	0	0	495	523
5023	0	0	0	0	499	523
5024	0	0	0	0	513	526
5025	0	0	0	0	519	531
5026	0	0	0	0	528	529
5027	0	0	0	0	540	529
5028	0	0	0	0	547	519
5029	0	0	0	0	548	497
5030	0	0	0	0	547	479
5031	0	0	0	0	539	473
5032	0	0	0	0	535	486
5033	0	0	0	0	537	509
5034	0	0	0	0	549	524
5035	0	0	0	0	555	540
5036	0	0	0	0	551	542
5037	0	0	0	0	535	517
5038	0	0	0	0	519	506
5039	0	0	0	0	515	508
5040	0	0	0	0	523	515
5041	0	0	0	0	503	519
5042	0	0	0	0	472	527
5043	0	0	0	0	446	523
5044	0	0	0	0	427	527
5045	0	0	0	0	414	531
5046	0	0	0	0	411	522
5047	0	0	0	0	417	500
5048	0	0	0	0	428	487
5049	0	0	0	0	460	487
5050	0	0	0	0	503	493
5051	0	0	0	0	547	503
5052	0	0	0	0	571	510
5053	0	0	0	0	575	516
5054	0	0	0	0	581	514
5055	0	0	0	0	574	515
5056	0	0	0	0	558	519
5057	0	0	0	0	544	516
5058	0	0	0	0	524	514
5059	0	0	0	0	505	506
5060	0	0	0	0	493	505
5061	0	0	0	0	486	502
5062	0	0	0	0	483	497
5063	0	0	0	0	502	492
5064	0	0	0	0	512	495
5065	0	0	0	0	515	501
5066	0	0	0	0	517	510
5067	0	0	0	0	516	517
5068	0	0	0	0	520	525
5069	0	0	0	0	526	531
5070	0	0	0	0	545	530
5071	0	0	0	0	549	517
5072	0	0	0	0	542	518
5073	0	0	0	0	527	525
5074	0	0	0	0	508	532
5075	0	0	0	0	479	535
5076	0	0	0	0	458	527
5077	0	0	0	0	444	521
5078	0	0	0	0	434	518
5079	0	0	0	0	443	513
5080	0	0	0	0	470	507
5081	0	0	0	0	500	505
5082	0	0	0	0	522	504
5083	0	0	0	0	536	502
5084	0	0	0	0	539	498
5085	0	0	0	0	540	497
5086	0	0	0	0	535	501
5087	0	0	0	0	528	506
5088	0	0	0	0	521	510
5089	0	0	0	0	519	515
5090	0	0	0	0	515	519
5091	0	0	0	0	513	519
5092	0	0	0	0	514	519
5093	0	0	0	0	514	514
5094	0	0	0	0	514	513
5095	0	0	0	0	512	510
5096	0	0	0	0	511	508
5097	0	0	0	0	508	509
5098	0	0	0	0	510	508
5099	0	0	0	0	509	510
5100	0	0	0	0	511	512
5101	0	0	0	0	515	497
5102	0	0	0	0	518	477
5103	0	0	0	0	513	476
5104	0	0	0	0	512	488
5105	0	0	0	0	513	506
5106	0	0	0	0	509	527
5107	0	0	0	0	499	539
5108	0	0	0	0	490	537
5109	0	0	0	0	487	541
5110	0	0	0	0	481	546
5111	0	0	0	0	480	537
5112	0	0	0	0	483	527
5113	0	0	0	0	495	520
5114	0	0	0	0	504	521
5115	0	0	0	0	515	521
5116	0	0	0	0	527	520
5117	0	0	0	0	526	511
5118	0	0	0	0	520	496
5119	0	0	0	0	520	483
5120	0	0	0	0	531	485
5121	0	0	0	0	545	496
5122	0	0	0	0	544	508
5123	0	0	0	0	550	515
5124	0	0	0	0	564	521
5125	0	0	0	0	569	519
5126	0	0	0	0	551	514
5127	0	0	0	0	524	498
5128	0	0	0	0	490	497
5129	0	0	0	0	454	500
5130	0	0	0	0	423	505
5131	0	0	0	0	419	514
5132	0	0	0	0	423	514
5133	0	0	0	0	431	519
5134	0	0	0	0	441	527
5135	0	0	0	0	463	533
5136	0	0	0	0	489	537
5137	0	0	0	0	510	525
5138	0	0	0	0	524	524
5139	0	0	0	0	530	529
5140	0	0	0	0	531	523
5141	0	0	0	0	541	519
5142	0	0	0	0	555	513
5143	0	0	0	0	566	509
5144	0	0	0	0	575	504
5145	0	0	0	0	579	497
5146	0	0	0	0	577	495
5147	0	0	0	0	565	496
5148	0	0	0	0	547	497
5149	0	0	0	0	524	501
5150	0	0	0	0	496	505
5151	0	0	0	0	473	500
5152	0	0	0	0	452	505
5153	0	0	0	0	432	512
5154	0	0	0	0	430	518
5155	0	0	0	0	439	524
5156	0	0	0	0	457	526
5157	0	0	0	0	483	521
5158	0	0	0	0	503	515
5159	0	0	0	0	519	512
5160	0	0	0	0	536	509
5161	0	0	0	0	543	509
5162	0	0	0	0	544	510
5163	0	0	0	0	543	507
5164	0	0	0	0	540	510
5165	0	0	0	0	537	510
5166	0	0	0	0	534	511
5167	0	0	0	0	529	509
5168	0	0	0	0	527	500
5169	0	0	0	0	521	504
5170	0	0	0	0	517	503
5171	0	0	0	0	510	504
5172	0	0	0	0	508	511
5173	0	0	0	0	505	512
5174	0	0	0	0	513	504
5175	0	0	0	0	519	500
5176	0	0	0	0	515	483
5177	0	0	0	0	512	468
5178	0	0	0	0	506	486
5179	0	0	0	0	496	500
5180	0	0	0	0	489	503
5181	0	0	0	0	492	518
5182	0	0	0	0	495	557
5183	0	0	0	0	503	582
5184	0	0	0	0	509	595
5185	0	0	0	0	516	595
5186	0	0	0	0	515	578
5187	0	0	0	0	519	553
5188	0	0	0	0	524	534
5189	0	0	0	0	528	515
5190	0	0	0	0	528	491
5191	0	0	0	0	530	460
5192	0	0	0	0	531	445
5193	0	0	0	0	531	458
5194	0	0	0	0	542	492
5195	0	0	0	0	549	519
5196	0	0	0	0	531	536
5197	0	0	0	0	499	539
5198	0	0	0	0	465	540
5199	0	0	0	0	439	532
5200	0	0	0	0	418	519
5201	0	0	0	0	409	503
5202	0	0	0	0	411	479
5203	0	0	0	0	428	458
5204	0	0	0	0	465	465
5205	0	0	0	0	509	489
5206	0	0	0	0	539	512
5207	0	0	0	0	542	526
5208	0	0	0	0	541	533
5209	0	0	0	0	544	537
5210	0	0	0	0	543	538
5211	0	0	0	0	540	531
5212	0	0	0	0	551	520
5213	0	0	0	0	559	511
5214	0	0	0	0	552	506
5215	0	0	0	0	537	503
5216	0	0	0	0	516	499
5217	0	0	0	0	503	502
5218	0	0	0	0	508	500
5219	0	0	0	0	504	495
5220	0	0	0	0	497	493
5221	0	0	0	0	492	484
5222	0	0	0	0	496	480
5223	0	0	0	0	501	487
5224	0	0	0	0	500	507
5225	0	0	0	0	496	527
5226	0	0	0	0	504	535
5227	0	0	0	0	518	535
5228	0	0	0	0	524	540
5229	0	0	0	0	521	537
5230	0	0	0	0	519	533
5231	0	0	0	0	515	531
5232	0	0	0	0	507	527
5233	0	0	0	0	504	523
5234	0	0	0	0	498	508
5235	0	0	0	0	505	492
5236	0	0	0	0	515	483
5237	0	0	0	0	545	465
5238	0	0	0	0	559	420
5239	0	0	0	0	556	440
5240	0	0	0	0	536	487
5241	0	0	0	0	525	532
5242	0	0	0	0	503	564
5243	0	0	0	0	477	577
5244	0	0	0	0	462	587
5245	0	0	0	0	467	583
5246	0	0	0	0	472	572
5247	0	0	0	0	480	560
5248	0	0	0	0	484	539
5249	0	0	0	0	481	511
5250	0	0	0	0	480	496
5251	0	0	0	0	476	490
5252	0	0	0	0	482	494
5253	0	0	0	0	493	500
5254	0	0	0	0	513	502
5255	0	0	0	0	527	501
5256	0	0	0	0	556	503
5257	0	0	0	0	592	497
5258	0	0	0	0	615	464
5259	0	0	0	0	618	435
5260	0	0	0	0	588	457
5261	0	0	0	0	544	495
5262	0	0	0	0	492	529
5263	0	0	0	0	443	550
5264	0	0	0	0	428	560
5265	0	0	0	0	426	568
5266	0	0	0	0	424	565
5267	0	0	0	0	443	550
5268	0	0	0	0	481	530
5269	0	0	0	0	508	511
5270	0	0	0	0	519	498
5271	0	0	0	0	513	488
5272	0	0	0	0	498	486
5273	0	0	0	0	487	490
5274	0	0	0	0	491	496
5275	0	0	0	0	505	500
5276	0	0	0	0	519	499
5277	0	0	0	0	528	502
5278	0	0	0	0	536	512
5279	0	0	0	0	537	514
5280	0	0	0	0	535	515
5281	0	0	0	0	535	513
5282	0	0	0	0	535	506
5283	0	0	0	0	536	486
5284	0	0	0	0	543	488
5285	0	0	0	0	540	502
5286	0	0	0	0	532	513
5287	0	0	0	0	530	522
5288	0	0	0	0	527	527
5289	0	0	0	0	522	527
5290	0	0	0	0	510	530
5291	0	0	0	0	498	530
5292	0	0	0	0	483	519
5293	0	0	0	0	474	510
5294	0	0	0	0	474	508
5295	0	0	0	0	474	507
5296	0	0	0	0	471	507
5297	0	0	0	0	486	504
5298	0	0	0	0	500	504
5299	0	0	0	0	518	507
5300	0	0	0	0	528	507
5301	0	0	0	0	529	507
5302	0	0	0	0	536	509
5303	0	0	0	0	558	511
5304	0	0	0	0	575	511
5305	0	0	0	0	576	511
5306	0	0	0	0	568	509
5307	0	0	0	0	540	502
5308	0	0	0	0	499	493
5309	0	0	0	0	455	488
5310	0	0	0	0	412	496
5311	0	0	0	0	390	508
5312	0	0	0	0	411	524
5313	0	0	0	0	449	535
5314	0	0	0	0	498	540
5315	0	0	0	0	541	543
5316	0	0	0	0	595	539
5317	0	0	0	0	627	543
5318	0	0	0	0	619	534
5319	0	0	0	0	579	519
5320	0	0	0	0	528	505
5321	0	0	0	0	473	490
5322	0	0	0	0	420	483
5323	0	0	0	0	383	481
5324	0	0	0	0	360	491
5325	0	0	0	0	376	509
5326	0	0	0	0	433	524
5327	0	0	0	0	499	528
5328	0	0	0	0	542	526
5329	0	0	0	0	569	529
5330	0	0	0	0	573	530
5331	0	0	0	0	574	533
5332	0	0	0	0	582	531
5333	0	0	0	0	583	524
5334	0	0	0	0	563	518
5335	0	0	0	0	543	516
5336	0	0	0	0	531	515
5337	0	0	0	0	516	506
5338	0	0	0	0	509	501
5339	0	0	0	0	489	500
5340	0	0	0	0	473	497
5341	0	0	0	0	456	496
5342	0	0	0	0	464	489
5343	0	0	0	0	463	480
5344	0	0	0	0	465	483
5345	0	0	0	0	474	497
5346	0	0	0	0	495	511
5347	0	0	0	0	513	524
5348	0	0	0	0	533	529
5349	0	0	0	0	541	530
5350	0	0	0	0	536	528
5351	0	0	0	0	531	530
5352	0	0	0	0	525	529
5353	0	0	0	0	518	524
5354	0	0	0	0	513	514
5355	0	0	0	0	516	509
5356	0	0	0	0	517	507
5357	0	0	0	0	520	505
5358	0	0	0	0	522	508
5359	0	0	0	0	524	507
5360	0	0	0	0	528	485
5361	0	0	0	0	531	460
5362	0	0	0	0	527	457
5363	0	0	0	0	527	483
5364	0	0	0	0	543	522
5365	0	0	0	0	546	554
5366	0	0	0	0	542	568
5367	0	0	0	0	534	572
5368	0	0	0	0	515	564
5369	0	0	0	0	494	555
5370	0	0	0	0	475	535
5371	0	0	0	0	459	513
5372	0	0	0	0	451	502
5373	0	0	0	0	457	496
5374	0	0	0	0	485	492
5375	0	0	0	0	513	495
5376	0	0	0	0	528	492
5377	0	0	0	0	531	483
5378	0	0	0	0	520	482
5379	0	0	0	0	500	490
5380	0	0	0	0	480	497
5381	0	0	0	0	464	508
5382	0	0	0	0	467	520
5383	0	0	0	0	469	528
5384	0	0	0	0	484	531
5385	0	0	0	0	499	531
5386	0	0	0	0	513	523
5387	0	0	0	0	519	508
5388	0	0	0	0	526	502
5389	0	0	0	0	534	506
5390	0	0	0	0	534	512
5391	0	0	0	0	535	512
5392	0	0	0	0	532	509
5393	0	0	0	0	530	511
5394	0	0	0	0	530	508
5395	0	0	0	0	537	487
5396	0	0	0	0	553	484
5397	0	0	0	0	566	495
5398	0	0	0	0	568	513
5399	0	0	0	0	555	527
5400	0	0	0	0	531	536
5401	0	0	0	0	491	535
5402	0	0	0	0	452	535
5403	0	0	0	0	416	537
5404	0	0	0	0	388	534
5405	0	0	0	0	398	528
5406	0	0	0	0	431	511
5407	0	0	0	0	470	493
5408	0	0	0	0	509	491
5409	0	0	0	0	530	484
5410	0	0	0	0	539	493
5411	0	0	0	0	537	499
5412	0	0	0	0	534	503
5413	0	0	0	0	527	516
5414	0	0	0	0	529	531
5415	0	0	0	0	530	539
5416	0	0	0	0	531	542
5417	0	0	0	0	533	531
5418	0	0	0	0	537	507
5419	0	0	0	0	536	496
5420	0	0	0	0	544	494
5421	0	0	0	0	548	497
5422	0	0	0	0	545	508
5423	0	0	0	0	537	518
5424	0	0	0	0	519	524
5425	0	0	0	0	496	526
5426	0	0	0	0	476	529
5427	0	0	0	0	462	522
5428	0	0	0	0	462	513
5429	0	0	0	0	467	504
5430	0	0	0	0	481	491
5431	0	0	0	0	498	466
5432	0	0	0	0	509	468
5433	0	0	0	0	520	495
5434	0	0	0	0	524	520
5435	0	0	0	0	521	534
5436	0	0	0	0	518	541
5437	0	0	0	0	518	541
5438	0	0	0	0	519	544
5439	0	0	0	0	518	541
5440	0	0	0	0	518	527
5441	0	0	0	0	520	511
5442	0	0	0	0	520	499
5443	0	0	0	0	517	500
5444	0	0	0	0	519	499
5445	0	0	0	0	519	502
5446	0	0	0	0	514	504
5447	0	0	0	0	507	508
5448	0	0	0	0	499	509
5449	0	0	0	0	496	511
5450	0	0	0	0	488	510
5451	0	0	0	0	489	505
5452	0	0	0	0	495	501
5453	0	0	0	0	503	499
5454	0	0	0	0	504	494
5455	0	0	0	0	512	490
5456	0	0	0	0	518	490
5457	0	0	0	0	519	492
5458	0	0	0	0	519	500
5459	0	0	0	0	521	517
5460	0	0	0	0	516	527
5461	0	0	0	0	514	530
5462	0	0	0	0	511	540
5463	0	0	0	0	506	551
5464	0	0	0	0	504	550
5465	0	0	0	0	501	543
5466	0	0	0	0	504	529
5467	0	0	0	0	505	510
5468	0	0	0	0	507	496
5469	0	0	0	0	513	489
5470	0	0	0	0	533	489
5471	0	0	0	0	547	488
5472	0	0	0	0	543	499
5473	0	0	0	0	536	509
5474	0	0	0	0	519	516
