# OpenSignals Text File Format. Version 1
# {"98:D3:11:FE:05:A2": {"position": 0, "device": "bitalino_rev", "device name": "98:D3:11:FE:05:A2", "device connection": "BTH98:D3:11:FE:05:A2", "sampling rate": 1000, "resolution": [4, 1, 1, 1, 1, 10, 10], "firmware version": 1282, "comments": "", "keywords": "", "mode": 0, "sync interval": 2, "date": "2026-6-26", "time": "15:41:52.754", "channels": [1, 2], "sensor": ["EMGBITREV", "EMGBITREV"], "label": ["A1", "A2"], "column": ["nSeq", "I1", "I2", "O1", "O2", "A1", "A2"], "special": [{}, {}], "digital IO": [0, 0, 1, 1]}}
# EndOfHeader
0	0	0	0	0	515	507	
1	0	0	0	0	512	512	
2	0	0	0	0	510	517	
3	0	0	0	0	511	514	
4	0	0	0	0	509	513	
5	0	0	0	0	509	511	
6	0	0	0	0	509	512	
7	0	0	0	0	512	513	
8	0	0	0	0	515	508	
9	0	0	0	0	511	504	
10	0	0	0	0	512	507	
11	0	0	0	0	511	511	
12	0	0	0	0	510	512	
13	0	0	0	0	511	511	
14	0	0	0	0	515	510	
15	0	0	0	0	519	507	
0	0	0	0	0	513	509	
1	0	0	0	0	509	509	
2	0	0	0	0	505	511	
3	0	0	0	0	504	511	
4	0	0	0	0	499	514	
5	0	0	0	0	498	514	
6	0	0	0	0	506	509	
7	0	0	0	0	509	514	
8	0	0	0	0	505	515	
9	0	0	0	0	504	514	
10	0	0	0	0	510	516	
11	0	0	0	0	515	516	
12	0	0	0	0	515	512	
13	0	0	0	0	516	504	
14	0	0	0	0	515	502	
15	0	0	0	0	515	508	
0	0	0	0	0	514	512	
1	0	0	0	0	512	509	
2	0	0	0	0	513	505	
3	0	0	0	0	516	504	
4	0	0	0	0	517	502	
5	0	0	0	0	515	498	
6	0	0	0	0	517	512	
7	0	0	0	0	513	515	
8	0	0	0	0	512	510	
9	0	0	0	0	507	511	
10	0	0	0	0	508	516	
11	0	0	0	0	508	519	
12	0	0	0	0	508	515	
13	0	0	0	0	505	512	
14	0	0	0	0	507	511	
15	0	0	0	0	508	511	
0	0	0	0	0	508	512	
1	0	0	0	0	505	514	
2	0	0	0	0	506	515	
3	0	0	0	0	510	514	
4	0	0	0	0	512	512	
5	0	0	0	0	513	513	
6	0	0	0	0	512	508	
7	0	0	0	0	512	507	
8	0	0	0	0	512	510	
9	0	0	0	0	512	504	
10	0	0	0	0	515	505	
11	0	0	0	0	511	506	
12	0	0	0	0	511	505	
13	0	0	0	0	511	507	
14	0	0	0	0	510	505	
15	0	0	0	0	509	507	
0	0	0	0	0	511	508	
1	0	0	0	0	512	510	
2	0	0	0	0	511	513	
3	0	0	0	0	510	507	
4	0	0	0	0	511	507	
5	0	0	0	0	511	507	
6	0	0	0	0	513	504	
7	0	0	0	0	510	502	
8	0	0	0	0	508	504	
9	0	0	0	0	508	506	
10	0	0	0	0	512	515	
11	0	0	0	0	514	515	
12	0	0	0	0	513	514	
13	0	0	0	0	512	512	
14	0	0	0	0	512	515	
15	0	0	0	0	513	514	
0	0	0	0	0	512	515	
1	0	0	0	0	511	516	
2	0	0	0	0	511	512	
3	0	0	0	0	509	505	
4	0	0	0	0	508	509	
5	0	0	0	0	510	517	
6	0	0	0	0	512	521	
7	0	0	0	0	511	515	
8	0	0	0	0	513	508	
9	0	0	0	0	512	506	
10	0	0	0	0	513	499	
11	0	0	0	0	513	498	
12	0	0	0	0	511	505	
13	0	0	0	0	508	512	
14	0	0	0	0	507	517	
15	0	0	0	0	513	516	
0	0	0	0	0	518	517	
1	0	0	0	0	518	524	
2	0	0	0	0	518	520	
3	0	0	0	0	512	516	
4	0	0	0	0	508	511	
5	0	0	0	0	503	504	
6	0	0	0	0	494	502	
7	0	0	0	0	499	505	
8	0	0	0	0	504	505	
9	0	0	0	0	507	502	
10	0	0	0	0	511	503	
11	0	0	0	0	515	502	
12	0	0	0	0	513	507	
13	0	0	0	0	515	514	
14	0	0	0	0	514	515	
15	0	0	0	0	511	516	
0	0	0	0	0	512	520	
1	0	0	0	0	510	522	
2	0	0	0	0	507	519	
3	0	0	0	0	508	519	
4	0	0	0	0	508	517	
5	0	0	0	0	514	510	
6	0	0	0	0	518	504	
7	0	0	0	0	516	503	
8	0	0	0	0	514	508	
9	0	0	0	0	510	508	
10	0	0	0	0	508	508	
11	0	0	0	0	505	513	
12	0	0	0	0	505	514	
13	0	0	0	0	504	513	
14	0	0	0	0	508	505	
15	0	0	0	0	512	499	
0	0	0	0	0	517	502	
1	0	0	0	0	513	511	
2	0	0	0	0	512	516	
3	0	0	0	0	510	512	
4	0	0	0	0	509	509	
5	0	0	0	0	507	507	
6	0	0	0	0	511	509	
7	0	0	0	0	511	509	
8	0	0	0	0	515	507	
9	0	0	0	0	519	508	
10	0	0	0	0	518	508	
11	0	0	0	0	516	512	
12	0	0	0	0	515	509	
13	0	0	0	0	512	509	
14	0	0	0	0	512	513	
15	0	0	0	0	508	517	
0	0	0	0	0	505	515	
1	0	0	0	0	505	515	
2	0	0	0	0	508	515	
3	0	0	0	0	513	510	
4	0	0	0	0	511	507	
5	0	0	0	0	511	513	
6	0	0	0	0	515	514	
7	0	0	0	0	514	509	
8	0	0	0	0	513	507	
9	0	0	0	0	511	509	
10	0	0	0	0	510	510	
11	0	0	0	0	507	508	
12	0	0	0	0	506	504	
13	0	0	0	0	505	506	
14	0	0	0	0	504	513	
15	0	0	0	0	505	513	
0	0	0	0	0	505	521	
1	0	0	0	0	508	521	
2	0	0	0	0	508	518	
3	0	0	0	0	509	506	
4	0	0	0	0	513	506	
5	0	0	0	0	517	509	
6	0	0	0	0	519	511	
7	0	0	0	0	519	508	
8	0	0	0	0	516	508	
9	0	0	0	0	514	507	
10	0	0	0	0	510	506	
11	0	0	0	0	511	504	
12	0	0	0	0	511	511	
13	0	0	0	0	509	510	
14	0	0	0	0	510	504	
15	0	0	0	0	511	503	
0	0	0	0	0	512	509	
1	0	0	0	0	506	511	
2	0	0	0	0	508	517	
3	0	0	0	0	511	518	
4	0	0	0	0	509	519	
5	0	0	0	0	509	518	
6	0	0	0	0	508	515	
7	0	0	0	0	511	510	
8	0	0	0	0	512	504	
9	0	0	0	0	511	495	
10	0	0	0	0	512	499	
11	0	0	0	0	511	507	
12	0	0	0	0	508	514	
13	0	0	0	0	509	517	
14	0	0	0	0	507	518	
15	0	0	0	0	504	516	
0	0	0	0	0	511	517	
1	0	0	0	0	514	514	
2	0	0	0	0	513	516	
3	0	0	0	0	512	515	
4	0	0	0	0	511	510	
5	0	0	0	0	511	504	
6	0	0	0	0	513	504	
7	0	0	0	0	513	506	
8	0	0	0	0	514	504	
9	0	0	0	0	512	499	
10	0	0	0	0	513	505	
11	0	0	0	0	513	508	
12	0	0	0	0	509	511	
13	0	0	0	0	508	512	
14	0	0	0	0	510	514	
15	0	0	0	0	508	524	
0	0	0	0	0	506	521	
1	0	0	0	0	505	511	
2	0	0	0	0	508	503	
3	0	0	0	0	508	504	
4	0	0	0	0	509	504	
5	0	0	0	0	512	506	
6	0	0	0	0	513	508	
7	0	0	0	0	515	516	
8	0	0	0	0	515	515	
9	0	0	0	0	518	512	
10	0	0	0	0	515	515	
11	0	0	0	0	513	515	
12	0	0	0	0	513	511	
13	0	0	0	0	513	507	
14	0	0	0	0	514	504	
15	0	0	0	0	516	504	
0	0	0	0	0	512	508	
1	0	0	0	0	509	514	
2	0	0	0	0	505	514	
3	0	0	0	0	504	511	
4	0	0	0	0	502	508	
5	0	0	0	0	501	507	
6	0	0	0	0	505	511	
7	0	0	0	0	510	521	
8	0	0	0	0	512	519	
9	0	0	0	0	512	514	
10	0	0	0	0	510	506	
11	0	0	0	0	511	499	
12	0	0	0	0	510	500	
13	0	0	0	0	510	507	
14	0	0	0	0	512	509	
15	0	0	0	0	512	509	
0	0	0	0	0	513	509	
1	0	0	0	0	511	511	
2	0	0	0	0	510	510	
3	0	0	0	0	509	515	
4	0	0	0	0	511	515	
5	0	0	0	0	515	514	
6	0	0	0	0	514	513	
7	0	0	0	0	512	510	
8	0	0	0	0	510	509	
9	0	0	0	0	510	505	
10	0	0	0	0	512	505	
11	0	0	0	0	513	505	
12	0	0	0	0	509	511	
13	0	0	0	0	510	515	
14	0	0	0	0	509	515	
15	0	0	0	0	512	509	
0	0	0	0	0	509	513	
1	0	0	0	0	509	511	
2	0	0	0	0	511	510	
3	0	0	0	0	509	513	
4	0	0	0	0	511	515	
5	0	0	0	0	513	512	
6	0	0	0	0	511	508	
7	0	0	0	0	511	508	
8	0	0	0	0	510	511	
9	0	0	0	0	511	509	
10	0	0	0	0	512	511	
11	0	0	0	0	512	512	
12	0	0	0	0	515	511	
13	0	0	0	0	516	508	
14	0	0	0	0	515	515	
15	0	0	0	0	513	517	
0	0	0	0	0	513	513	
1	0	0	0	0	513	508	
2	0	0	0	0	509	508	
3	0	0	0	0	508	507	
4	0	0	0	0	503	507	
5	0	0	0	0	505	505	
6	0	0	0	0	503	506	
7	0	0	0	0	504	510	
8	0	0	0	0	509	507	
9	0	0	0	0	513	510	
10	0	0	0	0	513	511	
11	0	0	0	0	511	511	
12	0	0	0	0	508	509	
13	0	0	0	0	509	511	
14	0	0	0	0	511	511	
15	0	0	0	0	515	509	
0	0	0	0	0	513	514	
1	0	0	0	0	512	520	
2	0	0	0	0	514	520	
3	0	0	0	0	514	511	
4	0	0	0	0	512	499	
5	0	0	0	0	508	499	
6	0	0	0	0	508	506	
7	0	0	0	0	512	508	
8	0	0	0	0	512	506	
9	0	0	0	0	512	513	
10	0	0	0	0	511	520	
11	0	0	0	0	510	521	
12	0	0	0	0	510	517	
13	0	0	0	0	509	511	
14	0	0	0	0	509	503	
15	0	0	0	0	505	498	
0	0	0	0	0	502	497	
1	0	0	0	0	507	499	
2	0	0	0	0	509	499	
3	0	0	0	0	510	505	
4	0	0	0	0	514	511	
5	0	0	0	0	512	520	
6	0	0	0	0	511	524	
7	0	0	0	0	513	521	
8	0	0	0	0	514	520	
9	0	0	0	0	514	521	
10	0	0	0	0	513	519	
11	0	0	0	0	513	518	
12	0	0	0	0	514	518	
13	0	0	0	0	513	511	
14	0	0	0	0	513	510	
15	0	0	0	0	513	507	
0	0	0	0	0	515	504	
1	0	0	0	0	515	490	
2	0	0	0	0	513	482	
3	0	0	0	0	512	487	
4	0	0	0	0	508	499	
5	0	0	0	0	508	508	
6	0	0	0	0	509	515	
7	0	0	0	0	505	516	
8	0	0	0	0	508	515	
9	0	0	0	0	509	511	
10	0	0	0	0	509	512	
11	0	0	0	0	506	521	
12	0	0	0	0	508	516	
13	0	0	0	0	507	512	
14	0	0	0	0	508	513	
15	0	0	0	0	511	515	
0	0	0	0	0	510	518	
1	0	0	0	0	513	511	
2	0	0	0	0	513	513	
3	0	0	0	0	512	511	
4	0	0	0	0	514	506	
5	0	0	0	0	514	508	
6	0	0	0	0	516	509	
7	0	0	0	0	512	512	
8	0	0	0	0	512	513	
9	0	0	0	0	510	514	
10	0	0	0	0	509	513	
11	0	0	0	0	508	512	
12	0	0	0	0	509	510	
13	0	0	0	0	507	510	
14	0	0	0	0	509	513	
15	0	0	0	0	512	520	
0	0	0	0	0	511	522	
1	0	0	0	0	511	518	
2	0	0	0	0	515	509	
3	0	0	0	0	518	501	
4	0	0	0	0	513	497	
5	0	0	0	0	514	504	
6	0	0	0	0	508	511	
7	0	0	0	0	505	510	
8	0	0	0	0	503	511	
9	0	0	0	0	507	515	
10	0	0	0	0	506	508	
11	0	0	0	0	509	503	
12	0	0	0	0	510	505	
13	0	0	0	0	512	509	
14	0	0	0	0	513	514	
15	0	0	0	0	519	517	
0	0	0	0	0	513	519	
1	0	0	0	0	513	515	
2	0	0	0	0	513	511	
3	0	0	0	0	512	507	
4	0	0	0	0	511	499	
5	0	0	0	0	511	504	
6	0	0	0	0	510	507	
7	0	0	0	0	510	508	
8	0	0	0	0	512	514	
9	0	0	0	0	514	515	
10	0	0	0	0	517	512	
11	0	0	0	0	515	508	
12	0	0	0	0	508	511	
13	0	0	0	0	508	516	
14	0	0	0	0	510	515	
15	0	0	0	0	505	516	
0	0	0	0	0	505	520	
1	0	0	0	0	504	516	
2	0	0	0	0	505	515	
3	0	0	0	0	506	511	
4	0	0	0	0	508	507	
5	0	0	0	0	512	503	
6	0	0	0	0	513	502	
7	0	0	0	0	516	507	
8	0	0	0	0	522	505	
9	0	0	0	0	519	501	
10	0	0	0	0	515	499	
11	0	0	0	0	510	503	
12	0	0	0	0	508	508	
13	0	0	0	0	505	509	
14	0	0	0	0	495	510	
15	0	0	0	0	499	510	
0	0	0	0	0	508	515	
1	0	0	0	0	512	513	
2	0	0	0	0	513	512	
3	0	0	0	0	516	509	
4	0	0	0	0	515	507	
5	0	0	0	0	513	508	
6	0	0	0	0	511	514	
7	0	0	0	0	508	515	
8	0	0	0	0	510	512	
9	0	0	0	0	508	509	
10	0	0	0	0	510	512	
11	0	0	0	0	511	513	
12	0	0	0	0	515	519	
13	0	0	0	0	518	524	
14	0	0	0	0	516	519	
15	0	0	0	0	515	517	
0	0	0	0	0	511	510	
1	0	0	0	0	508	504	
2	0	0	0	0	503	504	
3	0	0	0	0	503	505	
4	0	0	0	0	509	506	
5	0	0	0	0	509	498	
6	0	0	0	0	508	494	
7	0	0	0	0	513	503	
8	0	0	0	0	517	505	
9	0	0	0	0	513	511	
10	0	0	0	0	512	513	
11	0	0	0	0	507	517	
12	0	0	0	0	508	514	
13	0	0	0	0	511	512	
14	0	0	0	0	513	512	
15	0	0	0	0	514	511	
0	0	0	0	0	515	514	
1	0	0	0	0	512	515	
2	0	0	0	0	515	512	
3	0	0	0	0	513	511	
4	0	0	0	0	511	512	
5	0	0	0	0	510	510	
6	0	0	0	0	511	509	
7	0	0	0	0	512	511	
8	0	0	0	0	509	515	
9	0	0	0	0	512	513	
10	0	0	0	0	512	508	
11	0	0	0	0	511	505	
12	0	0	0	0	512	503	
13	0	0	0	0	511	507	
14	0	0	0	0	509	511	
15	0	0	0	0	507	512	
0	0	0	0	0	504	510	
1	0	0	0	0	505	510	
2	0	0	0	0	503	510	
3	0	0	0	0	500	518	
4	0	0	0	0	500	516	
5	0	0	0	0	505	513	
6	0	0	0	0	511	510	
7	0	0	0	0	513	507	
8	0	0	0	0	515	510	
9	0	0	0	0	514	522	
10	0	0	0	0	514	526	
11	0	0	0	0	515	526	
12	0	0	0	0	517	517	
13	0	0	0	0	517	502	
14	0	0	0	0	512	496	
15	0	0	0	0	515	492	
0	0	0	0	0	514	497	
1	0	0	0	0	510	496	
2	0	0	0	0	513	498	
3	0	0	0	0	511	505	
4	0	0	0	0	512	510	
5	0	0	0	0	514	512	
6	0	0	0	0	513	513	
7	0	0	0	0	509	515	
8	0	0	0	0	507	516	
9	0	0	0	0	508	515	
10	0	0	0	0	514	513	
11	0	0	0	0	512	516	
12	0	0	0	0	512	515	
13	0	0	0	0	511	511	
14	0	0	0	0	510	511	
15	0	0	0	0	505	511	
0	0	0	0	0	500	507	
1	0	0	0	0	499	503	
2	0	0	0	0	505	505	
3	0	0	0	0	508	512	
4	0	0	0	0	511	516	
5	0	0	0	0	512	518	
6	0	0	0	0	513	522	
7	0	0	0	0	514	513	
8	0	0	0	0	513	508	
9	0	0	0	0	512	507	
10	0	0	0	0	515	506	
11	0	0	0	0	516	504	
12	0	0	0	0	511	509	
13	0	0	0	0	509	515	
14	0	0	0	0	505	512	
15	0	0	0	0	504	508	
0	0	0	0	0	508	503	
1	0	0	0	0	505	501	
2	0	0	0	0	508	509	
3	0	0	0	0	510	513	
4	0	0	0	0	512	507	
5	0	0	0	0	518	500	
6	0	0	0	0	516	507	
7	0	0	0	0	516	513	
8	0	0	0	0	514	517	
9	0	0	0	0	511	512	
10	0	0	0	0	511	510	
11	0	0	0	0	509	509	
12	0	0	0	0	507	510	
13	0	0	0	0	508	512	
14	0	0	0	0	511	517	
15	0	0	0	0	512	516	
0	0	0	0	0	514	514	
1	0	0	0	0	513	512	
2	0	0	0	0	512	516	
3	0	0	0	0	514	514	
4	0	0	0	0	511	512	
5	0	0	0	0	509	506	
6	0	0	0	0	511	504	
7	0	0	0	0	513	507	
8	0	0	0	0	515	514	
9	0	0	0	0	509	512	
10	0	0	0	0	512	508	
11	0	0	0	0	512	511	
12	0	0	0	0	512	512	
13	0	0	0	0	511	512	
14	0	0	0	0	511	509	
15	0	0	0	0	511	504	
0	0	0	0	0	511	508	
1	0	0	0	0	508	508	
2	0	0	0	0	502	509	
3	0	0	0	0	506	512	
4	0	0	0	0	510	515	
5	0	0	0	0	512	515	
6	0	0	0	0	515	513	
7	0	0	0	0	514	512	
8	0	0	0	0	512	511	
9	0	0	0	0	510	511	
10	0	0	0	0	504	509	
11	0	0	0	0	503	509	
12	0	0	0	0	498	511	
13	0	0	0	0	503	513	
14	0	0	0	0	505	512	
15	0	0	0	0	510	510	
0	0	0	0	0	513	499	
1	0	0	0	0	515	494	
2	0	0	0	0	515	497	
3	0	0	0	0	515	506	
4	0	0	0	0	515	514	
5	0	0	0	0	516	516	
6	0	0	0	0	514	524	
7	0	0	0	0	512	523	
8	0	0	0	0	513	518	
9	0	0	0	0	512	510	
10	0	0	0	0	512	505	
11	0	0	0	0	512	504	
12	0	0	0	0	509	508	
13	0	0	0	0	507	508	
14	0	0	0	0	504	513	
15	0	0	0	0	508	514	
0	0	0	0	0	513	509	
1	0	0	0	0	514	504	
2	0	0	0	0	514	508	
3	0	0	0	0	511	509	
4	0	0	0	0	509	511	
5	0	0	0	0	509	511	
6	0	0	0	0	510	508	
7	0	0	0	0	511	508	
8	0	0	0	0	514	507	
9	0	0	0	0	518	507	
10	0	0	0	0	520	508	
11	0	0	0	0	521	515	
12	0	0	0	0	512	517	
13	0	0	0	0	508	517	
14	0	0	0	0	503	513	
15	0	0	0	0	500	509	
0	0	0	0	0	496	508	
1	0	0	0	0	497	507	
2	0	0	0	0	501	510	
3	0	0	0	0	507	515	
4	0	0	0	0	510	515	
5	0	0	0	0	510	515	
6	0	0	0	0	512	515	
7	0	0	0	0	513	518	
8	0	0	0	0	514	516	
9	0	0	0	0	511	515	
10	0	0	0	0	513	507	
11	0	0	0	0	514	499	
12	0	0	0	0	514	489	
13	0	0	0	0	517	491	
14	0	0	0	0	517	499	
15	0	0	0	0	512	508	
0	0	0	0	0	512	511	
1	0	0	0	0	514	509	
2	0	0	0	0	512	517	
3	0	0	0	0	508	515	
4	0	0	0	0	507	514	
5	0	0	0	0	509	519	
6	0	0	0	0	510	520	
7	0	0	0	0	509	518	
8	0	0	0	0	508	511	
9	0	0	0	0	510	506	
10	0	0	0	0	511	503	
11	0	0	0	0	510	506	
12	0	0	0	0	511	517	
13	0	0	0	0	511	516	
14	0	0	0	0	511	511	
15	0	0	0	0	514	509	
0	0	0	0	0	515	507	
1	0	0	0	0	513	509	
2	0	0	0	0	512	511	
3	0	0	0	0	511	513	
4	0	0	0	0	512	512	
5	0	0	0	0	512	513	
6	0	0	0	0	510	510	
7	0	0	0	0	511	510	
8	0	0	0	0	507	505	
9	0	0	0	0	510	502	
10	0	0	0	0	509	507	
11	0	0	0	0	509	508	
12	0	0	0	0	509	511	
13	0	0	0	0	513	514	
14	0	0	0	0	514	514	
15	0	0	0	0	515	518	
0	0	0	0	0	511	515	
1	0	0	0	0	508	514	
2	0	0	0	0	506	514	
3	0	0	0	0	504	513	
4	0	0	0	0	504	510	
5	0	0	0	0	504	504	
6	0	0	0	0	508	505	
7	0	0	0	0	511	503	
8	0	0	0	0	518	507	
9	0	0	0	0	519	506	
10	0	0	0	0	518	504	
11	0	0	0	0	515	493	
12	0	0	0	0	513	498	
13	0	0	0	0	504	510	
14	0	0	0	0	501	520	
15	0	0	0	0	507	519	
0	0	0	0	0	510	513	
1	0	0	0	0	503	512	
2	0	0	0	0	507	508	
3	0	0	0	0	511	507	
4	0	0	0	0	512	511	
5	0	0	0	0	512	509	
6	0	0	0	0	515	507	
7	0	0	0	0	516	508	
8	0	0	0	0	515	507	
9	0	0	0	0	512	511	
10	0	0	0	0	510	513	
11	0	0	0	0	511	515	
12	0	0	0	0	508	515	
13	0	0	0	0	510	517	
14	0	0	0	0	512	515	
15	0	0	0	0	514	513	
0	0	0	0	0	514	513	
1	0	0	0	0	515	510	
2	0	0	0	0	514	512	
3	0	0	0	0	515	510	
4	0	0	0	0	511	512	
5	0	0	0	0	510	513	
6	0	0	0	0	506	511	
7	0	0	0	0	510	511	
8	0	0	0	0	508	508	
9	0	0	0	0	508	507	
10	0	0	0	0	506	507	
11	0	0	0	0	506	507	
12	0	0	0	0	507	511	
13	0	0	0	0	512	512	
14	0	0	0	0	512	513	
15	0	0	0	0	511	510	
0	0	0	0	0	517	508	
1	0	0	0	0	518	509	
2	0	0	0	0	518	510	
3	0	0	0	0	517	512	
4	0	0	0	0	515	510	
5	0	0	0	0	512	508	
6	0	0	0	0	510	509	
7	0	0	0	0	509	510	
8	0	0	0	0	505	510	
9	0	0	0	0	503	511	
10	0	0	0	0	501	511	
11	0	0	0	0	503	514	
12	0	0	0	0	505	515	
13	0	0	0	0	505	516	
14	0	0	0	0	507	517	
15	0	0	0	0	508	519	
0	0	0	0	0	513	519	
1	0	0	0	0	515	512	
2	0	0	0	0	515	502	
3	0	0	0	0	515	498	
4	0	0	0	0	512	493	
5	0	0	0	0	513	499	
6	0	0	0	0	513	508	
7	0	0	0	0	512	515	
8	0	0	0	0	513	515	
9	0	0	0	0	511	516	
10	0	0	0	0	511	518	
11	0	0	0	0	514	514	
12	0	0	0	0	517	510	
13	0	0	0	0	517	511	
14	0	0	0	0	513	513	
15	0	0	0	0	513	508	
0	0	0	0	0	513	507	
1	0	0	0	0	508	506	
2	0	0	0	0	507	506	
3	0	0	0	0	505	507	
4	0	0	0	0	508	513	
5	0	0	0	0	508	512	
6	0	0	0	0	508	512	
7	0	0	0	0	503	513	
8	0	0	0	0	504	514	
9	0	0	0	0	510	515	
10	0	0	0	0	515	517	
11	0	0	0	0	513	513	
12	0	0	0	0	510	505	
13	0	0	0	0	511	501	
14	0	0	0	0	513	505	
15	0	0	0	0	517	513	
0	0	0	0	0	517	515	
1	0	0	0	0	516	516	
2	0	0	0	0	514	510	
3	0	0	0	0	513	512	
4	0	0	0	0	508	511	
5	0	0	0	0	504	510	
6	0	0	0	0	503	509	
7	0	0	0	0	503	508	
8	0	0	0	0	507	508	
9	0	0	0	0	507	507	
10	0	0	0	0	508	508	
11	0	0	0	0	510	508	
12	0	0	0	0	514	506	
13	0	0	0	0	513	501	
14	0	0	0	0	513	504	
15	0	0	0	0	511	510	
0	0	0	0	0	511	509	
1	0	0	0	0	510	505	
2	0	0	0	0	512	497	
3	0	0	0	0	511	498	
4	0	0	0	0	514	510	
5	0	0	0	0	517	519	
6	0	0	0	0	517	518	
7	0	0	0	0	515	516	
8	0	0	0	0	512	518	
9	0	0	0	0	513	517	
10	0	0	0	0	511	513	
11	0	0	0	0	508	508	
12	0	0	0	0	510	506	
13	0	0	0	0	512	503	
14	0	0	0	0	513	505	
15	0	0	0	0	511	507	
0	0	0	0	0	509	511	
1	0	0	0	0	509	518	
2	0	0	0	0	508	517	
3	0	0	0	0	507	511	
4	0	0	0	0	508	509	
5	0	0	0	0	506	513	
6	0	0	0	0	510	511	
7	0	0	0	0	511	510	
8	0	0	0	0	511	511	
9	0	0	0	0	510	513	
10	0	0	0	0	509	516	
11	0	0	0	0	510	515	
12	0	0	0	0	510	516	
13	0	0	0	0	512	515	
14	0	0	0	0	515	517	
15	0	0	0	0	513	515	
0	0	0	0	0	509	510	
1	0	0	0	0	506	508	
2	0	0	0	0	504	510	
3	0	0	0	0	505	508	
4	0	0	0	0	508	508	
5	0	0	0	0	511	508	
6	0	0	0	0	510	508	
7	0	0	0	0	512	508	
8	0	0	0	0	513	511	
9	0	0	0	0	513	515	
10	0	0	0	0	513	514	
11	0	0	0	0	514	511	
12	0	0	0	0	513	508	
13	0	0	0	0	512	508	
14	0	0	0	0	516	509	
15	0	0	0	0	518	512	
0	0	0	0	0	514	516	
1	0	0	0	0	511	516	
2	0	0	0	0	510	515	
3	0	0	0	0	505	511	
4	0	0	0	0	504	511	
5	0	0	0	0	504	509	
6	0	0	0	0	503	507	
7	0	0	0	0	505	505	
8	0	0	0	0	510	503	
9	0	0	0	0	511	503	
10	0	0	0	0	511	507	
11	0	0	0	0	508	508	
12	0	0	0	0	516	513	
13	0	0	0	0	521	519	
14	0	0	0	0	517	512	
15	0	0	0	0	516	510	
0	0	0	0	0	511	501	
1	0	0	0	0	508	506	
2	0	0	0	0	504	508	
3	0	0	0	0	502	507	
4	0	0	0	0	503	508	
5	0	0	0	0	511	511	
6	0	0	0	0	515	512	
7	0	0	0	0	519	515	
8	0	0	0	0	519	516	
9	0	0	0	0	514	514	
10	0	0	0	0	506	510	
11	0	0	0	0	508	508	
12	0	0	0	0	508	506	
13	0	0	0	0	508	510	
14	0	0	0	0	510	519	
15	0	0	0	0	508	516	
0	0	0	0	0	511	512	
1	0	0	0	0	508	507	
2	0	0	0	0	510	503	
3	0	0	0	0	511	498	
4	0	0	0	0	513	502	
5	0	0	0	0	515	505	
6	0	0	0	0	515	509	
7	0	0	0	0	519	517	
8	0	0	0	0	515	519	
9	0	0	0	0	512	524	
10	0	0	0	0	512	520	
11	0	0	0	0	510	515	
12	0	0	0	0	507	511	
13	0	0	0	0	506	508	
14	0	0	0	0	504	504	
15	0	0	0	0	504	502	
0	0	0	0	0	507	508	
1	0	0	0	0	512	514	
2	0	0	0	0	512	511	
3	0	0	0	0	513	512	
4	0	0	0	0	513	513	
5	0	0	0	0	513	508	
6	0	0	0	0	513	504	
7	0	0	0	0	512	503	
8	0	0	0	0	512	497	
9	0	0	0	0	512	499	
10	0	0	0	0	511	512	
11	0	0	0	0	513	518	
12	0	0	0	0	513	518	
13	0	0	0	0	511	515	
14	0	0	0	0	510	513	
15	0	0	0	0	511	515	
0	0	0	0	0	510	515	
1	0	0	0	0	503	518	
2	0	0	0	0	502	512	
3	0	0	0	0	504	507	
4	0	0	0	0	507	506	
5	0	0	0	0	510	508	
6	0	0	0	0	512	510	
7	0	0	0	0	513	509	
8	0	0	0	0	516	514	
9	0	0	0	0	519	515	
10	0	0	0	0	519	513	
11	0	0	0	0	515	510	
12	0	0	0	0	512	500	
13	0	0	0	0	507	497	
14	0	0	0	0	505	501	
15	0	0	0	0	504	514	
0	0	0	0	0	507	521	
1	0	0	0	0	504	517	
2	0	0	0	0	504	511	
3	0	0	0	0	508	509	
4	0	0	0	0	508	508	
5	0	0	0	0	508	505	
6	0	0	0	0	512	508	
7	0	0	0	0	516	511	
8	0	0	0	0	519	509	
9	0	0	0	0	518	510	
10	0	0	0	0	512	513	
11	0	0	0	0	511	515	
12	0	0	0	0	508	512	
13	0	0	0	0	506	508	
14	0	0	0	0	507	509	
15	0	0	0	0	507	511	
0	0	0	0	0	509	512	
1	0	0	0	0	514	513	
2	0	0	0	0	516	518	
3	0	0	0	0	515	515	
4	0	0	0	0	516	512	
5	0	0	0	0	512	509	
6	0	0	0	0	509	509	
7	0	0	0	0	509	507	
8	0	0	0	0	514	504	
9	0	0	0	0	511	507	
10	0	0	0	0	510	506	
11	0	0	0	0	511	507	
12	0	0	0	0	509	511	
13	0	0	0	0	509	510	
14	0	0	0	0	508	506	
15	0	0	0	0	505	507	
0	0	0	0	0	505	511	
1	0	0	0	0	511	514	
2	0	0	0	0	516	514	
3	0	0	0	0	515	511	
4	0	0	0	0	512	512	
5	0	0	0	0	510	507	
6	0	0	0	0	511	504	
7	0	0	0	0	510	512	
8	0	0	0	0	510	516	
9	0	0	0	0	510	515	
10	0	0	0	0	509	512	
11	0	0	0	0	509	513	
12	0	0	0	0	511	514	
13	0	0	0	0	510	513	
14	0	0	0	0	508	513	
15	0	0	0	0	507	511	
0	0	0	0	0	514	507	
1	0	0	0	0	512	500	
2	0	0	0	0	514	502	
3	0	0	0	0	512	507	
4	0	0	0	0	512	512	
5	0	0	0	0	512	514	
6	0	0	0	0	512	510	
7	0	0	0	0	510	506	
8	0	0	0	0	511	507	
9	0	0	0	0	512	509	
10	0	0	0	0	512	510	
11	0	0	0	0	515	516	
12	0	0	0	0	511	521	
13	0	0	0	0	511	512	
14	0	0	0	0	506	508	
15	0	0	0	0	509	508	
0	0	0	0	0	511	507	
1	0	0	0	0	510	505	
2	0	0	0	0	509	508	
3	0	0	0	0	511	506	
4	0	0	0	0	513	507	
5	0	0	0	0	512	512	
6	0	0	0	0	511	515	
7	0	0	0	0	509	517	
8	0	0	0	0	512	516	
9	0	0	0	0	515	515	
10	0	0	0	0	512	511	
11	0	0	0	0	510	508	
12	0	0	0	0	508	506	
13	0	0	0	0	511	507	
14	0	0	0	0	510	524	
15	0	0	0	0	511	526	
0	0	0	0	0	511	517	
1	0	0	0	0	514	507	
2	0	0	0	0	513	502	
3	0	0	0	0	504	493	
4	0	0	0	0	502	499	
5	0	0	0	0	508	502	
6	0	0	0	0	510	498	
7	0	0	0	0	509	505	
8	0	0	0	0	508	507	
9	0	0	0	0	508	510	
10	0	0	0	0	510	514	
11	0	0	0	0	510	518	
12	0	0	0	0	511	517	
13	0	0	0	0	510	516	
14	0	0	0	0	509	519	
15	0	0	0	0	513	518	
0	0	0	0	0	511	515	
1	0	0	0	0	509	513	
2	0	0	0	0	510	507	
3	0	0	0	0	511	499	
4	0	0	0	0	511	500	
5	0	0	0	0	511	505	
6	0	0	0	0	512	515	
7	0	0	0	0	513	517	
8	0	0	0	0	513	516	
9	0	0	0	0	509	515	
10	0	0	0	0	509	514	
11	0	0	0	0	512	513	
12	0	0	0	0	513	508	
13	0	0	0	0	511	507	
14	0	0	0	0	514	504	
15	0	0	0	0	517	505	
0	0	0	0	0	516	508	
1	0	0	0	0	516	509	
2	0	0	0	0	512	512	
3	0	0	0	0	513	513	
4	0	0	0	0	516	516	
5	0	0	0	0	512	514	
6	0	0	0	0	510	510	
7	0	0	0	0	514	512	
8	0	0	0	0	515	509	
9	0	0	0	0	510	507	
10	0	0	0	0	503	508	
11	0	0	0	0	499	508	
12	0	0	0	0	499	507	
13	0	0	0	0	500	510	
14	0	0	0	0	502	509	
15	0	0	0	0	504	510	
0	0	0	0	0	507	508	
1	0	0	0	0	511	512	
2	0	0	0	0	510	512	
3	0	0	0	0	511	511	
4	0	0	0	0	517	512	
5	0	0	0	0	518	511	
6	0	0	0	0	515	513	
7	0	0	0	0	514	513	
8	0	0	0	0	512	512	
9	0	0	0	0	510	513	
10	0	0	0	0	510	508	
11	0	0	0	0	513	503	
12	0	0	0	0	514	504	
13	0	0	0	0	513	509	
14	0	0	0	0	515	513	
15	0	0	0	0	514	513	
0	0	0	0	0	514	511	
1	0	0	0	0	514	509	
2	0	0	0	0	510	507	
3	0	0	0	0	509	507	
4	0	0	0	0	511	514	
5	0	0	0	0	509	515	
6	0	0	0	0	509	516	
7	0	0	0	0	506	511	
8	0	0	0	0	509	507	
9	0	0	0	0	513	511	
10	0	0	0	0	511	510	
11	0	0	0	0	509	512	
12	0	0	0	0	511	511	
13	0	0	0	0	511	507	
14	0	0	0	0	512	508	
15	0	0	0	0	511	511	
0	0	0	0	0	508	512	
1	0	0	0	0	509	510	
2	0	0	0	0	511	511	
3	0	0	0	0	507	510	
4	0	0	0	0	504	512	
5	0	0	0	0	510	510	
6	0	0	0	0	515	515	
7	0	0	0	0	513	516	
8	0	0	0	0	516	515	
9	0	0	0	0	518	510	
10	0	0	0	0	518	505	
11	0	0	0	0	514	499	
12	0	0	0	0	511	505	
13	0	0	0	0	502	510	
14	0	0	0	0	504	513	
15	0	0	0	0	503	517	
0	0	0	0	0	504	515	
1	0	0	0	0	508	507	
2	0	0	0	0	509	509	
3	0	0	0	0	511	508	
4	0	0	0	0	510	508	
5	0	0	0	0	508	504	
6	0	0	0	0	511	510	
7	0	0	0	0	511	513	
8	0	0	0	0	514	515	
9	0	0	0	0	516	510	
10	0	0	0	0	516	508	
11	0	0	0	0	513	508	
12	0	0	0	0	513	511	
13	0	0	0	0	511	506	
14	0	0	0	0	508	507	
15	0	0	0	0	511	511	
0	0	0	0	0	509	516	
1	0	0	0	0	509	514	
2	0	0	0	0	509	512	
3	0	0	0	0	511	507	
4	0	0	0	0	511	507	
5	0	0	0	0	511	516	
6	0	0	0	0	513	518	
7	0	0	0	0	516	517	
8	0	0	0	0	517	516	
9	0	0	0	0	516	515	
10	0	0	0	0	512	505	
11	0	0	0	0	511	500	
12	0	0	0	0	510	501	
13	0	0	0	0	506	502	
14	0	0	0	0	508	500	
15	0	0	0	0	506	503	
0	0	0	0	0	509	508	
1	0	0	0	0	512	515	
2	0	0	0	0	514	516	
3	0	0	0	0	510	520	
4	0	0	0	0	509	519	
5	0	0	0	0	502	515	
6	0	0	0	0	500	511	
7	0	0	0	0	502	510	
8	0	0	0	0	504	510	
9	0	0	0	0	508	507	
10	0	0	0	0	511	508	
11	0	0	0	0	512	515	
12	0	0	0	0	511	515	
13	0	0	0	0	513	511	
14	0	0	0	0	513	509	
15	0	0	0	0	511	509	
0	0	0	0	0	514	508	
1	0	0	0	0	513	504	
2	0	0	0	0	516	508	
3	0	0	0	0	512	507	
4	0	0	0	0	511	508	
5	0	0	0	0	512	511	
6	0	0	0	0	511	513	
7	0	0	0	0	512	512	
8	0	0	0	0	511	511	
9	0	0	0	0	510	514	
10	0	0	0	0	512	511	
11	0	0	0	0	516	508	
12	0	0	0	0	514	509	
13	0	0	0	0	513	510	
14	0	0	0	0	510	511	
15	0	0	0	0	509	512	
0	0	0	0	0	509	511	
1	0	0	0	0	508	511	
2	0	0	0	0	504	509	
3	0	0	0	0	508	508	
4	0	0	0	0	512	510	
5	0	0	0	0	512	513	
6	0	0	0	0	511	512	
7	0	0	0	0	508	514	
8	0	0	0	0	511	516	
9	0	0	0	0	512	514	
10	0	0	0	0	511	516	
11	0	0	0	0	515	513	
12	0	0	0	0	516	512	
13	0	0	0	0	512	511	
14	0	0	0	0	510	510	
15	0	0	0	0	512	508	
0	0	0	0	0	513	505	
1	0	0	0	0	511	503	
2	0	0	0	0	504	504	
3	0	0	0	0	508	500	
4	0	0	0	0	511	502	
5	0	0	0	0	511	506	
6	0	0	0	0	509	511	
7	0	0	0	0	507	510	
8	0	0	0	0	509	512	
9	0	0	0	0	511	514	
10	0	0	0	0	509	518	
11	0	0	0	0	508	521	
12	0	0	0	0	513	516	
13	0	0	0	0	515	517	
14	0	0	0	0	521	514	
15	0	0	0	0	519	511	
0	0	0	0	0	516	508	
1	0	0	0	0	509	507	
2	0	0	0	0	505	504	
3	0	0	0	0	503	505	
4	0	0	0	0	505	510	
5	0	0	0	0	504	511	
6	0	0	0	0	505	513	
7	0	0	0	0	510	510	
8	0	0	0	0	513	504	
9	0	0	0	0	513	504	
10	0	0	0	0	516	512	
11	0	0	0	0	513	516	
12	0	0	0	0	513	515	
13	0	0	0	0	513	511	
14	0	0	0	0	513	510	
15	0	0	0	0	513	509	
0	0	0	0	0	510	508	
1	0	0	0	0	511	504	
2	0	0	0	0	511	507	
3	0	0	0	0	511	505	
4	0	0	0	0	513	508	
5	0	0	0	0	511	512	
6	0	0	0	0	513	511	
7	0	0	0	0	513	511	
8	0	0	0	0	514	509	
9	0	0	0	0	510	509	
10	0	0	0	0	508	514	
11	0	0	0	0	508	515	
12	0	0	0	0	505	518	
13	0	0	0	0	504	519	
14	0	0	0	0	504	515	
15	0	0	0	0	504	519	
0	0	0	0	0	507	518	
1	0	0	0	0	510	513	
2	0	0	0	0	512	511	
3	0	0	0	0	512	520	
4	0	0	0	0	509	515	
5	0	0	0	0	511	505	
6	0	0	0	0	515	494	
7	0	0	0	0	516	488	
8	0	0	0	0	518	491	
9	0	0	0	0	516	495	
10	0	0	0	0	511	499	
11	0	0	0	0	510	504	
12	0	0	0	0	513	504	
13	0	0	0	0	510	504	
14	0	0	0	0	512	507	
15	0	0	0	0	511	515	
0	0	0	0	0	511	524	
1	0	0	0	0	513	528	
2	0	0	0	0	515	524	
3	0	0	0	0	512	522	
4	0	0	0	0	511	517	
5	0	0	0	0	510	508	
6	0	0	0	0	507	507	
7	0	0	0	0	504	508	
8	0	0	0	0	501	513	
9	0	0	0	0	501	513	
10	0	0	0	0	505	511	
11	0	0	0	0	507	509	
12	0	0	0	0	514	509	
13	0	0	0	0	512	509	
14	0	0	0	0	514	508	
15	0	0	0	0	514	508	
0	0	0	0	0	513	511	
1	0	0	0	0	512	510	
2	0	0	0	0	511	510	
3	0	0	0	0	511	511	
4	0	0	0	0	510	511	
5	0	0	0	0	514	512	
6	0	0	0	0	512	512	
7	0	0	0	0	511	510	
8	0	0	0	0	511	510	
9	0	0	0	0	510	510	
10	0	0	0	0	511	513	
11	0	0	0	0	509	514	
12	0	0	0	0	505	508	
13	0	0	0	0	507	511	
14	0	0	0	0	511	511	
15	0	0	0	0	513	511	
0	0	0	0	0	515	510	
1	0	0	0	0	514	508	
2	0	0	0	0	513	509	
3	0	0	0	0	516	508	
4	0	0	0	0	518	509	
5	0	0	0	0	513	511	
6	0	0	0	0	510	511	
7	0	0	0	0	508	510	
8	0	0	0	0	510	509	
9	0	0	0	0	503	506	
10	0	0	0	0	504	509	
11	0	0	0	0	511	510	
12	0	0	0	0	512	513	
13	0	0	0	0	510	509	
14	0	0	0	0	509	510	
15	0	0	0	0	508	513	
0	0	0	0	0	510	511	
1	0	0	0	0	511	515	
2	0	0	0	0	509	514	
3	0	0	0	0	508	507	
4	0	0	0	0	512	505	
5	0	0	0	0	512	505	
6	0	0	0	0	512	506	
7	0	0	0	0	513	511	
8	0	0	0	0	515	516	
9	0	0	0	0	518	514	
10	0	0	0	0	516	510	
11	0	0	0	0	514	509	
12	0	0	0	0	514	510	
13	0	0	0	0	517	511	
14	0	0	0	0	510	516	
15	0	0	0	0	505	519	
0	0	0	0	0	506	520	
1	0	0	0	0	502	514	
2	0	0	0	0	502	510	
3	0	0	0	0	506	508	
4	0	0	0	0	512	504	
5	0	0	0	0	513	504	
6	0	0	0	0	510	504	
7	0	0	0	0	509	509	
8	0	0	0	0	507	511	
9	0	0	0	0	502	511	
10	0	0	0	0	502	510	
11	0	0	0	0	504	509	
12	0	0	0	0	504	510	
13	0	0	0	0	508	511	
14	0	0	0	0	513	509	
15	0	0	0	0	521	500	
0	0	0	0	0	524	500	
1	0	0	0	0	522	500	
2	0	0	0	0	516	500	
3	0	0	0	0	512	510	
4	0	0	0	0	510	519	
5	0	0	0	0	505	519	
6	0	0	0	0	497	515	
7	0	0	0	0	503	515	
8	0	0	0	0	506	514	
9	0	0	0	0	512	516	
10	0	0	0	0	515	519	
11	0	0	0	0	519	523	
12	0	0	0	0	517	524	
13	0	0	0	0	515	521	
14	0	0	0	0	515	512	
15	0	0	0	0	513	504	
0	0	0	0	0	512	495	
1	0	0	0	0	509	495	
2	0	0	0	0	512	493	
3	0	0	0	0	511	499	
4	0	0	0	0	508	505	
5	0	0	0	0	509	509	
6	0	0	0	0	511	509	
7	0	0	0	0	511	512	
8	0	0	0	0	510	510	
9	0	0	0	0	506	510	
10	0	0	0	0	506	512	
11	0	0	0	0	508	514	
12	0	0	0	0	507	518	
13	0	0	0	0	508	522	
14	0	0	0	0	507	524	
15	0	0	0	0	512	517	
0	0	0	0	0	513	514	
1	0	0	0	0	513	513	
2	0	0	0	0	515	507	
3	0	0	0	0	512	503	
4	0	0	0	0	516	497	
5	0	0	0	0	513	500	
6	0	0	0	0	511	504	
7	0	0	0	0	511	515	
8	0	0	0	0	511	517	
9	0	0	0	0	510	515	
10	0	0	0	0	511	507	
11	0	0	0	0	513	495	
12	0	0	0	0	515	503	
13	0	0	0	0	513	509	
14	0	0	0	0	509	514	
15	0	0	0	0	509	513	
0	0	0	0	0	505	506	
1	0	0	0	0	505	502	
2	0	0	0	0	507	510	
3	0	0	0	0	514	519	
4	0	0	0	0	516	527	
5	0	0	0	0	515	524	
6	0	0	0	0	511	518	
7	0	0	0	0	511	512	
8	0	0	0	0	510	512	
9	0	0	0	0	505	506	
10	0	0	0	0	505	507	
11	0	0	0	0	511	508	
12	0	0	0	0	511	508	
13	0	0	0	0	512	511	
14	0	0	0	0	511	512	
15	0	0	0	0	509	510	
0	0	0	0	0	512	510	
1	0	0	0	0	514	511	
2	0	0	0	0	515	514	
3	0	0	0	0	510	512	
4	0	0	0	0	508	510	
5	0	0	0	0	508	507	
6	0	0	0	0	508	504	
7	0	0	0	0	508	508	
8	0	0	0	0	505	512	
9	0	0	0	0	509	516	
10	0	0	0	0	511	515	
11	0	0	0	0	513	519	
12	0	0	0	0	515	512	
13	0	0	0	0	516	506	
14	0	0	0	0	515	494	
15	0	0	0	0	513	497	
0	0	0	0	0	508	504	
1	0	0	0	0	505	505	
2	0	0	0	0	500	507	
3	0	0	0	0	505	508	
4	0	0	0	0	511	512	
5	0	0	0	0	513	513	
6	0	0	0	0	515	519	
7	0	0	0	0	515	518	
8	0	0	0	0	514	512	
9	0	0	0	0	509	513	
10	0	0	0	0	509	511	
11	0	0	0	0	509	507	
12	0	0	0	0	507	504	
13	0	0	0	0	510	511	
14	0	0	0	0	510	507	
15	0	0	0	0	516	512	
0	0	0	0	0	517	516	
1	0	0	0	0	519	516	
2	0	0	0	0	518	516	
3	0	0	0	0	514	519	
4	0	0	0	0	508	517	
5	0	0	0	0	504	511	
6	0	0	0	0	504	507	
7	0	0	0	0	503	508	
8	0	0	0	0	505	507	
9	0	0	0	0	507	502	
10	0	0	0	0	507	502	
11	0	0	0	0	510	513	
12	0	0	0	0	508	511	
13	0	0	0	0	510	505	
14	0	0	0	0	511	503	
15	0	0	0	0	514	497	
0	0	0	0	0	515	507	
1	0	0	0	0	517	504	
2	0	0	0	0	514	510	
3	0	0	0	0	513	510	
4	0	0	0	0	515	512	
5	0	0	0	0	513	512	
6	0	0	0	0	513	512	
7	0	0	0	0	510	515	
8	0	0	0	0	511	516	
9	0	0	0	0	508	517	
10	0	0	0	0	509	516	
11	0	0	0	0	512	511	
12	0	0	0	0	509	515	
13	0	0	0	0	510	520	
14	0	0	0	0	516	521	
15	0	0	0	0	518	516	
0	0	0	0	0	516	511	
1	0	0	0	0	515	511	
2	0	0	0	0	515	508	
3	0	0	0	0	515	502	
4	0	0	0	0	507	504	
5	0	0	0	0	501	507	
6	0	0	0	0	500	505	
7	0	0	0	0	508	505	
8	0	0	0	0	507	504	
9	0	0	0	0	502	508	
10	0	0	0	0	501	508	
11	0	0	0	0	504	502	
12	0	0	0	0	506	498	
13	0	0	0	0	509	504	
14	0	0	0	0	508	509	
15	0	0	0	0	511	511	
0	0	0	0	0	515	515	
1	0	0	0	0	515	520	
2	0	0	0	0	515	519	
3	0	0	0	0	514	518	
4	0	0	0	0	513	516	
5	0	0	0	0	518	515	
6	0	0	0	0	518	513	
7	0	0	0	0	518	514	
8	0	0	0	0	519	511	
9	0	0	0	0	520	508	
10	0	0	0	0	519	502	
11	0	0	0	0	517	508	
12	0	0	0	0	509	521	
13	0	0	0	0	505	521	
14	0	0	0	0	499	515	
15	0	0	0	0	499	515	
0	0	0	0	0	496	515	
1	0	0	0	0	498	512	
2	0	0	0	0	500	510	
3	0	0	0	0	506	505	
4	0	0	0	0	510	503	
5	0	0	0	0	511	504	
6	0	0	0	0	512	509	
7	0	0	0	0	511	509	
8	0	0	0	0	513	511	
9	0	0	0	0	514	512	
10	0	0	0	0	512	511	
11	0	0	0	0	516	511	
12	0	0	0	0	519	511	
13	0	0	0	0	516	511	
14	0	0	0	0	516	513	
15	0	0	0	0	512	512	
0	0	0	0	0	511	510	
1	0	0	0	0	509	508	
2	0	0	0	0	506	508	
3	0	0	0	0	505	509	
4	0	0	0	0	508	505	
5	0	0	0	0	510	504	
6	0	0	0	0	512	503	
7	0	0	0	0	512	504	
8	0	0	0	0	512	503	
9	0	0	0	0	512	505	
10	0	0	0	0	514	505	
11	0	0	0	0	515	513	
12	0	0	0	0	514	513	
13	0	0	0	0	517	512	
14	0	0	0	0	512	508	
15	0	0	0	0	509	509	
0	0	0	0	0	507	512	
1	0	0	0	0	504	512	
2	0	0	0	0	510	511	
3	0	0	0	0	514	511	
4	0	0	0	0	513	508	
5	0	0	0	0	512	515	
6	0	0	0	0	512	516	
7	0	0	0	0	510	516	
8	0	0	0	0	513	515	
9	0	0	0	0	516	513	
10	0	0	0	0	515	511	
11	0	0	0	0	513	514	
12	0	0	0	0	512	514	
13	0	0	0	0	508	510	
14	0	0	0	0	502	508	
15	0	0	0	0	496	505	
0	0	0	0	0	496	501	
1	0	0	0	0	504	504	
2	0	0	0	0	510	508	
3	0	0	0	0	512	512	
4	0	0	0	0	514	515	
5	0	0	0	0	513	517	
6	0	0	0	0	515	512	
7	0	0	0	0	515	513	
8	0	0	0	0	512	509	
9	0	0	0	0	511	512	
10	0	0	0	0	510	515	
11	0	0	0	0	510	513	
12	0	0	0	0	515	507	
13	0	0	0	0	521	501	
14	0	0	0	0	517	499	
15	0	0	0	0	509	498	
0	0	0	0	0	503	504	
1	0	0	0	0	502	511	
2	0	0	0	0	500	518	
3	0	0	0	0	498	519	
4	0	0	0	0	504	514	
5	0	0	0	0	512	510	
6	0	0	0	0	513	508	
7	0	0	0	0	515	509	
8	0	0	0	0	516	514	
9	0	0	0	0	515	511	
10	0	0	0	0	513	513	
11	0	0	0	0	510	515	
12	0	0	0	0	510	510	
13	0	0	0	0	514	505	
14	0	0	0	0	511	494	
15	0	0	0	0	512	504	
0	0	0	0	0	510	519	
1	0	0	0	0	514	524	
2	0	0	0	0	514	523	
3	0	0	0	0	513	518	
4	0	0	0	0	515	512	
5	0	0	0	0	515	506	
6	0	0	0	0	515	503	
7	0	0	0	0	512	499	
8	0	0	0	0	510	498	
9	0	0	0	0	510	502	
10	0	0	0	0	507	507	
11	0	0	0	0	508	515	
12	0	0	0	0	510	522	
13	0	0	0	0	512	528	
14	0	0	0	0	516	519	
15	0	0	0	0	514	512	
0	0	0	0	0	511	504	
1	0	0	0	0	510	503	
2	0	0	0	0	505	500	
3	0	0	0	0	506	503	
4	0	0	0	0	506	504	
5	0	0	0	0	506	508	
6	0	0	0	0	506	511	
7	0	0	0	0	508	511	
8	0	0	0	0	508	513	
9	0	0	0	0	507	517	
10	0	0	0	0	507	516	
11	0	0	0	0	509	515	
12	0	0	0	0	509	514	
13	0	0	0	0	513	516	
14	0	0	0	0	515	516	
15	0	0	0	0	518	513	
0	0	0	0	0	517	513	
1	0	0	0	0	516	512	
2	0	0	0	0	513	511	
3	0	0	0	0	510	507	
4	0	0	0	0	507	504	
5	0	0	0	0	501	505	
6	0	0	0	0	506	507	
7	0	0	0	0	513	508	
8	0	0	0	0	515	511	
9	0	0	0	0	511	513	
10	0	0	0	0	511	513	
11	0	0	0	0	514	505	
12	0	0	0	0	519	505	
13	0	0	0	0	518	506	
14	0	0	0	0	519	507	
15	0	0	0	0	517	511	
0	0	0	0	0	513	506	
1	0	0	0	0	507	506	
2	0	0	0	0	499	513	
3	0	0	0	0	497	515	
4	0	0	0	0	493	510	
5	0	0	0	0	498	512	
6	0	0	0	0	503	510	
7	0	0	0	0	509	511	
8	0	0	0	0	511	512	
9	0	0	0	0	510	511	
10	0	0	0	0	512	512	
11	0	0	0	0	515	511	
12	0	0	0	0	518	510	
13	0	0	0	0	516	510	
14	0	0	0	0	516	507	
15	0	0	0	0	514	509	
0	0	0	0	0	513	507	
1	0	0	0	0	511	511	
2	0	0	0	0	508	513	
3	0	0	0	0	509	512	
4	0	0	0	0	515	512	
5	0	0	0	0	518	515	
6	0	0	0	0	518	517	
7	0	0	0	0	516	518	
8	0	0	0	0	512	515	
9	0	0	0	0	508	511	
10	0	0	0	0	504	505	
11	0	0	0	0	500	503	
12	0	0	0	0	499	508	
13	0	0	0	0	505	508	
14	0	0	0	0	509	503	
15	0	0	0	0	513	499	
0	0	0	0	0	516	495	
1	0	0	0	0	515	503	
2	0	0	0	0	514	511	
3	0	0	0	0	512	519	
4	0	0	0	0	511	517	
5	0	0	0	0	512	513	
6	0	0	0	0	514	509	
7	0	0	0	0	516	512	
8	0	0	0	0	513	514	
9	0	0	0	0	512	512	
10	0	0	0	0	512	512	
11	0	0	0	0	508	514	
12	0	0	0	0	506	515	
13	0	0	0	0	508	520	
14	0	0	0	0	508	519	
15	0	0	0	0	511	518	
0	0	0	0	0	515	509	
1	0	0	0	0	516	505	
2	0	0	0	0	513	506	
3	0	0	0	0	511	503	
4	0	0	0	0	506	501	
5	0	0	0	0	507	505	
6	0	0	0	0	506	509	
7	0	0	0	0	503	510	
8	0	0	0	0	509	512	
9	0	0	0	0	512	511	
10	0	0	0	0	515	510	
11	0	0	0	0	514	512	
12	0	0	0	0	515	511	
13	0	0	0	0	517	511	
14	0	0	0	0	514	514	
15	0	0	0	0	510	517	
0	0	0	0	0	510	513	
1	0	0	0	0	510	512	
2	0	0	0	0	504	512	
3	0	0	0	0	505	510	
4	0	0	0	0	508	508	
5	0	0	0	0	509	508	
6	0	0	0	0	509	509	
7	0	0	0	0	511	509	
8	0	0	0	0	512	519	
9	0	0	0	0	512	522	
10	0	0	0	0	510	511	
11	0	0	0	0	508	502	
12	0	0	0	0	508	496	
13	0	0	0	0	509	497	
14	0	0	0	0	513	511	
15	0	0	0	0	515	519	
0	0	0	0	0	515	518	
1	0	0	0	0	514	512	
2	0	0	0	0	516	510	
3	0	0	0	0	517	510	
4	0	0	0	0	515	509	
5	0	0	0	0	516	505	
6	0	0	0	0	516	505	
7	0	0	0	0	509	507	
8	0	0	0	0	509	510	
9	0	0	0	0	504	510	
10	0	0	0	0	507	514	
11	0	0	0	0	509	518	
12	0	0	0	0	505	515	
13	0	0	0	0	500	518	
14	0	0	0	0	505	515	
15	0	0	0	0	511	513	
0	0	0	0	0	514	509	
1	0	0	0	0	513	505	
2	0	0	0	0	511	508	
3	0	0	0	0	512	512	
4	0	0	0	0	507	512	
5	0	0	0	0	504	510	
6	0	0	0	0	506	512	
7	0	0	0	0	510	513	
8	0	0	0	0	512	509	
9	0	0	0	0	513	504	
10	0	0	0	0	515	505	
11	0	0	0	0	513	509	
12	0	0	0	0	517	512	
13	0	0	0	0	517	513	
14	0	0	0	0	515	511	
15	0	0	0	0	512	509	
0	0	0	0	0	513	510	
1	0	0	0	0	511	510	
2	0	0	0	0	501	511	
3	0	0	0	0	504	508	
4	0	0	0	0	506	515	
5	0	0	0	0	504	515	
6	0	0	0	0	503	513	
7	0	0	0	0	510	510	
8	0	0	0	0	518	508	
9	0	0	0	0	521	507	
10	0	0	0	0	516	508	
11	0	0	0	0	512	512	
12	0	0	0	0	512	513	
13	0	0	0	0	509	513	
14	0	0	0	0	508	509	
15	0	0	0	0	507	506	
0	0	0	0	0	509	506	
1	0	0	0	0	507	508	
2	0	0	0	0	509	509	
3	0	0	0	0	510	511	
4	0	0	0	0	514	511	
5	0	0	0	0	515	511	
6	0	0	0	0	513	509	
7	0	0	0	0	513	509	
8	0	0	0	0	510	515	
9	0	0	0	0	510	519	
10	0	0	0	0	509	514	
11	0	0	0	0	510	515	
12	0	0	0	0	512	512	
13	0	0	0	0	515	509	
14	0	0	0	0	518	514	
15	0	0	0	0	513	512	
0	0	0	0	0	512	503	
1	0	0	0	0	507	500	
2	0	0	0	0	508	500	
3	0	0	0	0	504	500	
4	0	0	0	0	506	505	
5	0	0	0	0	504	504	
6	0	0	0	0	504	506	
7	0	0	0	0	512	510	
8	0	0	0	0	515	510	
9	0	0	0	0	511	512	
10	0	0	0	0	510	513	
11	0	0	0	0	509	510	
12	0	0	0	0	507	510	
13	0	0	0	0	507	517	
14	0	0	0	0	505	520	
15	0	0	0	0	510	519	
0	0	0	0	0	513	521	
1	0	0	0	0	513	512	
2	0	0	0	0	514	514	
3	0	0	0	0	513	511	
4	0	0	0	0	515	508	
5	0	0	0	0	515	504	
6	0	0	0	0	520	503	
7	0	0	0	0	521	504	
8	0	0	0	0	523	503	
9	0	0	0	0	516	505	
10	0	0	0	0	513	506	
11	0	0	0	0	508	512	
12	0	0	0	0	501	515	
13	0	0	0	0	497	513	
14	0	0	0	0	495	515	
15	0	0	0	0	497	513	
0	0	0	0	0	504	512	
1	0	0	0	0	507	511	
2	0	0	0	0	510	515	
3	0	0	0	0	515	510	
4	0	0	0	0	513	510	
5	0	0	0	0	512	510	
6	0	0	0	0	513	510	
7	0	0	0	0	515	511	
8	0	0	0	0	513	512	
9	0	0	0	0	512	513	
10	0	0	0	0	516	511	
11	0	0	0	0	514	508	
12	0	0	0	0	515	511	
13	0	0	0	0	515	506	
14	0	0	0	0	515	508	
15	0	0	0	0	515	508	
0	0	0	0	0	511	507	
1	0	0	0	0	509	512	
2	0	0	0	0	505	511	
3	0	0	0	0	504	512	
4	0	0	0	0	505	512	
5	0	0	0	0	505	517	
6	0	0	0	0	507	515	
7	0	0	0	0	511	513	
8	0	0	0	0	512	509	
9	0	0	0	0	513	507	
10	0	0	0	0	511	500	
11	0	0	0	0	511	500	
12	0	0	0	0	514	504	
13	0	0	0	0	513	507	
14	0	0	0	0	508	509	
15	0	0	0	0	509	513	
0	0	0	0	0	511	516	
1	0	0	0	0	512	514	
2	0	0	0	0	509	509	
3	0	0	0	0	512	507	
4	0	0	0	0	509	513	
5	0	0	0	0	509	509	
6	0	0	0	0	512	509	
7	0	0	0	0	511	512	
8	0	0	0	0	513	507	
9	0	0	0	0	510	508	
10	0	0	0	0	509	507	
11	0	0	0	0	511	512	
12	0	0	0	0	512	519	
13	0	0	0	0	512	520	
14	0	0	0	0	512	518	
15	0	0	0	0	511	519	
0	0	0	0	0	510	512	
1	0	0	0	0	510	511	
2	0	0	0	0	508	510	
3	0	0	0	0	512	504	
4	0	0	0	0	511	498	
5	0	0	0	0	512	501	
6	0	0	0	0	513	507	
7	0	0	0	0	512	512	
8	0	0	0	0	513	511	
9	0	0	0	0	514	514	
10	0	0	0	0	512	517	
11	0	0	0	0	513	507	
12	0	0	0	0	515	500	
13	0	0	0	0	507	505	
14	0	0	0	0	504	512	
15	0	0	0	0	505	517	
0	0	0	0	0	505	511	
1	0	0	0	0	508	511	
2	0	0	0	0	510	511	
3	0	0	0	0	509	515	
4	0	0	0	0	514	510	
5	0	0	0	0	514	508	
6	0	0	0	0	512	506	
7	0	0	0	0	508	508	
8	0	0	0	0	508	511	
9	0	0	0	0	506	512	
10	0	0	0	0	510	508	
11	0	0	0	0	511	507	
12	0	0	0	0	511	506	
13	0	0	0	0	513	508	
14	0	0	0	0	512	512	
15	0	0	0	0	511	514	
0	0	0	0	0	514	519	
1	0	0	0	0	511	519	
2	0	0	0	0	512	518	
3	0	0	0	0	516	516	
4	0	0	0	0	513	512	
5	0	0	0	0	515	510	
6	0	0	0	0	512	513	
7	0	0	0	0	512	521	
8	0	0	0	0	512	513	
9	0	0	0	0	512	503	
10	0	0	0	0	510	492	
11	0	0	0	0	506	491	
12	0	0	0	0	505	499	
13	0	0	0	0	500	508	
14	0	0	0	0	504	511	
15	0	0	0	0	502	514	
0	0	0	0	0	504	512	
1	0	0	0	0	509	508	
2	0	0	0	0	518	504	
3	0	0	0	0	520	505	
4	0	0	0	0	523	505	
5	0	0	0	0	517	504	
6	0	0	0	0	514	505	
7	0	0	0	0	511	510	
8	0	0	0	0	504	517	
9	0	0	0	0	499	518	
10	0	0	0	0	499	519	
11	0	0	0	0	503	518	
12	0	0	0	0	509	513	
13	0	0	0	0	512	512	
14	0	0	0	0	514	516	
15	0	0	0	0	517	512	
0	0	0	0	0	519	509	
1	0	0	0	0	515	508	
2	0	0	0	0	511	505	
3	0	0	0	0	509	511	
4	0	0	0	0	505	513	
5	0	0	0	0	509	515	
6	0	0	0	0	509	514	
7	0	0	0	0	510	512	
8	0	0	0	0	513	510	
9	0	0	0	0	514	506	
10	0	0	0	0	509	505	
11	0	0	0	0	509	510	
12	0	0	0	0	506	514	
13	0	0	0	0	503	513	
14	0	0	0	0	507	511	
15	0	0	0	0	508	505	
0	0	0	0	0	510	507	
1	0	0	0	0	514	509	
2	0	0	0	0	519	510	
3	0	0	0	0	521	514	
4	0	0	0	0	518	518	
5	0	0	0	0	513	513	
6	0	0	0	0	511	511	
7	0	0	0	0	509	507	
8	0	0	0	0	509	510	
9	0	0	0	0	508	512	
10	0	0	0	0	513	510	
11	0	0	0	0	516	512	
12	0	0	0	0	514	515	
13	0	0	0	0	510	512	
14	0	0	0	0	510	510	
15	0	0	0	0	508	511	
0	0	0	0	0	509	513	
1	0	0	0	0	516	515	
2	0	0	0	0	515	508	
3	0	0	0	0	513	509	
4	0	0	0	0	506	510	
5	0	0	0	0	505	506	
6	0	0	0	0	502	503	
7	0	0	0	0	503	508	
8	0	0	0	0	505	508	
9	0	0	0	0	510	508	
10	0	0	0	0	514	508	
11	0	0	0	0	512	507	
12	0	0	0	0	515	510	
13	0	0	0	0	511	515	
14	0	0	0	0	511	516	
15	0	0	0	0	513	516	
0	0	0	0	0	513	513	
1	0	0	0	0	515	510	
2	0	0	0	0	514	507	
3	0	0	0	0	509	507	
4	0	0	0	0	512	508	
5	0	0	0	0	512	510	
6	0	0	0	0	512	514	
7	0	0	0	0	508	514	
8	0	0	0	0	510	514	
9	0	0	0	0	510	513	
10	0	0	0	0	510	515	
11	0	0	0	0	511	514	
12	0	0	0	0	512	503	
13	0	0	0	0	512	499	
14	0	0	0	0	512	508	
15	0	0	0	0	514	507	
0	0	0	0	0	511	507	
1	0	0	0	0	511	510	
2	0	0	0	0	510	514	
3	0	0	0	0	509	519	
4	0	0	0	0	508	510	
5	0	0	0	0	509	508	
6	0	0	0	0	508	505	
7	0	0	0	0	511	511	
8	0	0	0	0	510	514	
9	0	0	0	0	511	516	
10	0	0	0	0	512	513	
11	0	0	0	0	510	510	
12	0	0	0	0	512	505	
13	0	0	0	0	511	504	
14	0	0	0	0	513	510	
15	0	0	0	0	514	513	
0	0	0	0	0	514	512	
1	0	0	0	0	512	510	
2	0	0	0	0	512	509	
3	0	0	0	0	510	510	
4	0	0	0	0	511	511	
5	0	0	0	0	510	509	
6	0	0	0	0	511	510	
7	0	0	0	0	503	507	
8	0	0	0	0	507	510	
9	0	0	0	0	503	513	
10	0	0	0	0	506	512	
11	0	0	0	0	509	515	
12	0	0	0	0	512	512	
13	0	0	0	0	512	513	
14	0	0	0	0	512	508	
15	0	0	0	0	514	505	
0	0	0	0	0	513	509	
1	0	0	0	0	510	518	
2	0	0	0	0	511	515	
3	0	0	0	0	512	511	
4	0	0	0	0	514	507	
5	0	0	0	0	511	506	
6	0	0	0	0	510	508	
7	0	0	0	0	512	508	
8	0	0	0	0	516	511	
9	0	0	0	0	517	512	
10	0	0	0	0	523	508	
11	0	0	0	0	519	509	
12	0	0	0	0	515	515	
13	0	0	0	0	513	514	
14	0	0	0	0	506	516	
15	0	0	0	0	503	512	
0	0	0	0	0	500	502	
1	0	0	0	0	499	496	
2	0	0	0	0	499	495	
3	0	0	0	0	498	503	
4	0	0	0	0	505	511	
5	0	0	0	0	514	516	
6	0	0	0	0	516	517	
7	0	0	0	0	513	514	
8	0	0	0	0	512	517	
9	0	0	0	0	509	520	
10	0	0	0	0	507	515	
11	0	0	0	0	499	510	
12	0	0	0	0	498	502	
13	0	0	0	0	503	504	
14	0	0	0	0	511	508	
15	0	0	0	0	518	510	
0	0	0	0	0	524	514	
1	0	0	0	0	522	517	
2	0	0	0	0	525	513	
3	0	0	0	0	525	512	
4	0	0	0	0	522	522	
5	0	0	0	0	518	519	
6	0	0	0	0	511	515	
7	0	0	0	0	503	501	
8	0	0	0	0	495	491	
9	0	0	0	0	493	494	
10	0	0	0	0	498	512	
11	0	0	0	0	504	519	
12	0	0	0	0	507	514	
13	0	0	0	0	515	510	
14	0	0	0	0	517	505	
15	0	0	0	0	518	505	
0	0	0	0	0	514	504	
1	0	0	0	0	513	507	
2	0	0	0	0	511	512	
3	0	0	0	0	514	511	
4	0	0	0	0	511	510	
5	0	0	0	0	510	513	
6	0	0	0	0	508	514	
7	0	0	0	0	509	517	
8	0	0	0	0	507	510	
9	0	0	0	0	507	507	
10	0	0	0	0	504	507	
11	0	0	0	0	508	513	
12	0	0	0	0	513	517	
13	0	0	0	0	513	516	
14	0	0	0	0	513	513	
15	0	0	0	0	510	512	
0	0	0	0	0	512	511	
1	0	0	0	0	514	507	
2	0	0	0	0	513	510	
3	0	0	0	0	514	510	
4	0	0	0	0	512	512	
5	0	0	0	0	514	515	
6	0	0	0	0	511	513	
7	0	0	0	0	513	513	
8	0	0	0	0	514	511	
9	0	0	0	0	511	510	
10	0	0	0	0	510	510	
11	0	0	0	0	513	509	
12	0	0	0	0	513	509	
13	0	0	0	0	512	505	
14	0	0	0	0	512	503	
15	0	0	0	0	512	512	
0	0	0	0	0	511	515	
1	0	0	0	0	509	515	
2	0	0	0	0	511	510	
3	0	0	0	0	510	511	
4	0	0	0	0	511	510	
5	0	0	0	0	512	507	
6	0	0	0	0	513	508	
7	0	0	0	0	511	510	
8	0	0	0	0	505	508	
9	0	0	0	0	504	510	
10	0	0	0	0	505	509	
11	0	0	0	0	504	508	
12	0	0	0	0	507	510	
13	0	0	0	0	508	512	
14	0	0	0	0	511	518	
15	0	0	0	0	512	519	
0	0	0	0	0	512	513	
1	0	0	0	0	511	509	
2	0	0	0	0	514	507	
3	0	0	0	0	511	506	
4	0	0	0	0	511	508	
5	0	0	0	0	510	510	
6	0	0	0	0	511	510	
7	0	0	0	0	510	511	
8	0	0	0	0	512	509	
9	0	0	0	0	509	512	
10	0	0	0	0	512	508	
11	0	0	0	0	511	508	
12	0	0	0	0	509	511	
13	0	0	0	0	511	508	
14	0	0	0	0	511	506	
15	0	0	0	0	511	512	
0	0	0	0	0	512	513	
1	0	0	0	0	511	515	
2	0	0	0	0	509	510	
3	0	0	0	0	513	508	
4	0	0	0	0	515	511	
5	0	0	0	0	514	509	
6	0	0	0	0	513	513	
7	0	0	0	0	509	512	
8	0	0	0	0	509	509	
9	0	0	0	0	506	508	
10	0	0	0	0	505	511	
11	0	0	0	0	508	508	
12	0	0	0	0	509	510	
13	0	0	0	0	510	509	
14	0	0	0	0	511	513	
15	0	0	0	0	508	510	
0	0	0	0	0	512	511	
1	0	0	0	0	512	509	
2	0	0	0	0	514	508	
3	0	0	0	0	512	510	
4	0	0	0	0	512	510	
5	0	0	0	0	511	512	
6	0	0	0	0	511	513	
7	0	0	0	0	512	511	
8	0	0	0	0	512	511	
9	0	0	0	0	512	512	
10	0	0	0	0	512	510	
11	0	0	0	0	514	511	
12	0	0	0	0	514	509	
13	0	0	0	0	519	512	
14	0	0	0	0	523	510	
15	0	0	0	0	524	510	
0	0	0	0	0	525	508	
1	0	0	0	0	521	511	
2	0	0	0	0	511	509	
3	0	0	0	0	503	508	
4	0	0	0	0	494	510	
5	0	0	0	0	485	511	
6	0	0	0	0	482	512	
7	0	0	0	0	485	510	
8	0	0	0	0	495	510	
9	0	0	0	0	498	512	
10	0	0	0	0	503	509	
11	0	0	0	0	510	510	
12	0	0	0	0	515	508	
13	0	0	0	0	518	511	
14	0	0	0	0	522	513	
15	0	0	0	0	525	512	
0	0	0	0	0	526	509	
1	0	0	0	0	522	511	
2	0	0	0	0	518	508	
3	0	0	0	0	515	508	
4	0	0	0	0	514	509	
5	0	0	0	0	506	511	
6	0	0	0	0	499	511	
7	0	0	0	0	500	511	
8	0	0	0	0	505	509	
9	0	0	0	0	506	508	
10	0	0	0	0	507	511	
11	0	0	0	0	511	510	
12	0	0	0	0	511	513	
13	0	0	0	0	513	509	
14	0	0	0	0	515	511	
15	0	0	0	0	515	511	
0	0	0	0	0	518	510	
1	0	0	0	0	515	512	
2	0	0	0	0	511	512	
3	0	0	0	0	512	510	
4	0	0	0	0	515	514	
5	0	0	0	0	513	513	
6	0	0	0	0	513	511	
7	0	0	0	0	513	511	
8	0	0	0	0	513	512	
9	0	0	0	0	512	512	
10	0	0	0	0	513	516	
11	0	0	0	0	509	512	
12	0	0	0	0	508	510	
13	0	0	0	0	506	510	
14	0	0	0	0	511	509	
15	0	0	0	0	511	503	
0	0	0	0	0	514	507	
1	0	0	0	0	512	511	
2	0	0	0	0	510	512	
3	0	0	0	0	510	516	
4	0	0	0	0	509	517	
5	0	0	0	0	512	521	
6	0	0	0	0	509	517	
7	0	0	0	0	510	510	
8	0	0	0	0	513	505	
9	0	0	0	0	510	500	
10	0	0	0	0	505	504	
11	0	0	0	0	499	500	
12	0	0	0	0	498	492	
13	0	0	0	0	503	497	
14	0	0	0	0	506	507	
15	0	0	0	0	511	513	
0	0	0	0	0	514	510	
1	0	0	0	0	517	507	
2	0	0	0	0	512	500	
3	0	0	0	0	513	511	
4	0	0	0	0	513	521	
5	0	0	0	0	513	515	
6	0	0	0	0	517	511	
7	0	0	0	0	516	507	
8	0	0	0	0	514	506	
9	0	0	0	0	516	502	
10	0	0	0	0	517	502	
11	0	0	0	0	518	505	
12	0	0	0	0	518	515	
13	0	0	0	0	516	522	
14	0	0	0	0	523	523	
15	0	0	0	0	517	520	
0	0	0	0	0	513	518	
1	0	0	0	0	508	520	
2	0	0	0	0	506	513	
3	0	0	0	0	504	511	
4	0	0	0	0	505	510	
5	0	0	0	0	499	515	
6	0	0	0	0	499	513	
7	0	0	0	0	506	510	
8	0	0	0	0	504	499	
9	0	0	0	0	502	499	
10	0	0	0	0	503	501	
11	0	0	0	0	505	507	
12	0	0	0	0	506	508	
13	0	0	0	0	504	511	
14	0	0	0	0	504	512	
15	0	0	0	0	507	511	
0	0	0	0	0	514	513	
1	0	0	0	0	521	516	
2	0	0	0	0	521	514	
3	0	0	0	0	518	516	
4	0	0	0	0	518	522	
5	0	0	0	0	515	521	
6	0	0	0	0	511	519	
7	0	0	0	0	511	509	
8	0	0	0	0	512	504	
9	0	0	0	0	510	507	
10	0	0	0	0	511	503	
11	0	0	0	0	510	505	
12	0	0	0	0	508	508	
13	0	0	0	0	508	508	
14	0	0	0	0	508	513	
15	0	0	0	0	508	507	
0	0	0	0	0	510	504	
1	0	0	0	0	511	508	
2	0	0	0	0	510	512	
3	0	0	0	0	510	514	
4	0	0	0	0	507	515	
5	0	0	0	0	508	511	
6	0	0	0	0	509	508	
7	0	0	0	0	508	504	
8	0	0	0	0	509	506	
9	0	0	0	0	513	510	
10	0	0	0	0	516	510	
11	0	0	0	0	519	511	
12	0	0	0	0	521	516	
13	0	0	0	0	519	517	
14	0	0	0	0	514	512	
15	0	0	0	0	509	513	
0	0	0	0	0	508	511	
1	0	0	0	0	507	508	
2	0	0	0	0	503	510	
3	0	0	0	0	501	518	
4	0	0	0	0	511	513	
5	0	0	0	0	517	507	
6	0	0	0	0	518	508	
7	0	0	0	0	514	508	
8	0	0	0	0	513	509	
9	0	0	0	0	511	510	
10	0	0	0	0	507	511	
11	0	0	0	0	511	511	
12	0	0	0	0	508	508	
13	0	0	0	0	512	510	
14	0	0	0	0	512	508	
15	0	0	0	0	513	515	
0	0	0	0	0	509	516	
1	0	0	0	0	505	514	
2	0	0	0	0	508	509	
3	0	0	0	0	513	509	
4	0	0	0	0	515	511	
5	0	0	0	0	515	510	
6	0	0	0	0	514	505	
7	0	0	0	0	514	500	
8	0	0	0	0	511	503	
9	0	0	0	0	509	509	
10	0	0	0	0	508	513	
11	0	0	0	0	512	512	
12	0	0	0	0	511	513	
13	0	0	0	0	510	513	
14	0	0	0	0	511	513	
15	0	0	0	0	510	514	
0	0	0	0	0	512	515	
1	0	0	0	0	506	512	
2	0	0	0	0	505	507	
3	0	0	0	0	506	508	
4	0	0	0	0	511	508	
5	0	0	0	0	509	511	
6	0	0	0	0	511	509	
7	0	0	0	0	511	510	
8	0	0	0	0	512	510	
9	0	0	0	0	511	509	
10	0	0	0	0	511	508	
11	0	0	0	0	509	509	
12	0	0	0	0	508	508	
13	0	0	0	0	507	512	
14	0	0	0	0	509	513	
15	0	0	0	0	515	516	
0	0	0	0	0	513	518	
1	0	0	0	0	512	515	
2	0	0	0	0	516	512	
3	0	0	0	0	516	503	
4	0	0	0	0	516	504	
5	0	0	0	0	513	510	
6	0	0	0	0	512	508	
7	0	0	0	0	511	512	
8	0	0	0	0	510	515	
9	0	0	0	0	509	516	
10	0	0	0	0	510	508	
11	0	0	0	0	513	505	
12	0	0	0	0	515	496	
13	0	0	0	0	509	503	
14	0	0	0	0	511	508	
15	0	0	0	0	510	517	
0	0	0	0	0	511	516	
1	0	0	0	0	511	508	
2	0	0	0	0	504	512	
3	0	0	0	0	503	520	
4	0	0	0	0	505	517	
5	0	0	0	0	500	508	
6	0	0	0	0	498	508	
7	0	0	0	0	504	510	
8	0	0	0	0	509	506	
9	0	0	0	0	513	505	
10	0	0	0	0	514	500	
11	0	0	0	0	516	503	
12	0	0	0	0	515	507	
13	0	0	0	0	516	512	
14	0	0	0	0	514	516	
15	0	0	0	0	510	520	
0	0	0	0	0	515	515	
1	0	0	0	0	519	511	
2	0	0	0	0	520	504	
3	0	0	0	0	519	501	
4	0	0	0	0	514	508	
5	0	0	0	0	508	509	
6	0	0	0	0	504	512	
7	0	0	0	0	502	510	
8	0	0	0	0	501	510	
9	0	0	0	0	505	512	
10	0	0	0	0	507	517	
11	0	0	0	0	507	518	
12	0	0	0	0	507	521	
13	0	0	0	0	506	518	
14	0	0	0	0	510	507	
15	0	0	0	0	512	511	
0	0	0	0	0	515	504	
1	0	0	0	0	515	499	
2	0	0	0	0	517	502	
3	0	0	0	0	516	506	
4	0	0	0	0	514	508	
5	0	0	0	0	512	505	
6	0	0	0	0	508	509	
7	0	0	0	0	512	510	
8	0	0	0	0	512	514	
9	0	0	0	0	512	521	
10	0	0	0	0	511	521	
11	0	0	0	0	508	518	
12	0	0	0	0	508	512	
13	0	0	0	0	510	509	
14	0	0	0	0	512	507	
15	0	0	0	0	514	504	
0	0	0	0	0	513	507	
1	0	0	0	0	514	509	
2	0	0	0	0	512	512	
3	0	0	0	0	512	513	
4	0	0	0	0	509	511	
5	0	0	0	0	511	511	
6	0	0	0	0	512	511	
7	0	0	0	0	511	511	
8	0	0	0	0	515	511	
9	0	0	0	0	515	510	
10	0	0	0	0	515	509	
11	0	0	0	0	511	511	
12	0	0	0	0	510	509	
13	0	0	0	0	507	512	
14	0	0	0	0	505	508	
15	0	0	0	0	507	508	
0	0	0	0	0	506	512	
1	0	0	0	0	509	516	
2	0	0	0	0	510	518	
3	0	0	0	0	508	515	
4	0	0	0	0	509	515	
5	0	0	0	0	510	510	
6	0	0	0	0	510	509	
7	0	0	0	0	508	508	
8	0	0	0	0	513	505	
9	0	0	0	0	515	499	
10	0	0	0	0	516	499	
11	0	0	0	0	518	503	
12	0	0	0	0	517	508	
13	0	0	0	0	513	505	
14	0	0	0	0	510	507	
15	0	0	0	0	505	511	
0	0	0	0	0	507	515	
1	0	0	0	0	507	514	
2	0	0	0	0	504	515	
3	0	0	0	0	507	513	
4	0	0	0	0	511	517	
5	0	0	0	0	511	515	
6	0	0	0	0	511	514	
7	0	0	0	0	514	510	
8	0	0	0	0	513	506	
9	0	0	0	0	515	506	
10	0	0	0	0	516	506	
11	0	0	0	0	515	505	
12	0	0	0	0	511	505	
13	0	0	0	0	504	512	
14	0	0	0	0	508	522	
15	0	0	0	0	509	522	
0	0	0	0	0	510	519	
1	0	0	0	0	511	508	
2	0	0	0	0	511	502	
3	0	0	0	0	514	503	
4	0	0	0	0	511	504	
5	0	0	0	0	510	508	
6	0	0	0	0	514	512	
7	0	0	0	0	512	513	
8	0	0	0	0	511	513	
9	0	0	0	0	511	511	
10	0	0	0	0	508	513	
11	0	0	0	0	508	512	
12	0	0	0	0	505	511	
13	0	0	0	0	501	510	
14	0	0	0	0	503	507	
15	0	0	0	0	507	507	
0	0	0	0	0	507	509	
1	0	0	0	0	507	507	
2	0	0	0	0	510	510	
3	0	0	0	0	512	515	
4	0	0	0	0	514	514	
5	0	0	0	0	518	513	
6	0	0	0	0	518	507	
7	0	0	0	0	519	503	
8	0	0	0	0	515	509	
9	0	0	0	0	514	509	
10	0	0	0	0	514	510	
11	0	0	0	0	515	512	
12	0	0	0	0	518	515	
13	0	0	0	0	516	509	
14	0	0	0	0	511	504	
15	0	0	0	0	509	502	
0	0	0	0	0	505	503	
1	0	0	0	0	502	500	
2	0	0	0	0	502	507	
3	0	0	0	0	506	512	
4	0	0	0	0	507	515	
5	0	0	0	0	509	518	
6	0	0	0	0	512	518	
7	0	0	0	0	511	517	
8	0	0	0	0	511	507	
9	0	0	0	0	512	505	
10	0	0	0	0	508	513	
11	0	0	0	0	510	515	
12	0	0	0	0	508	513	
13	0	0	0	0	512	510	
14	0	0	0	0	511	512	
15	0	0	0	0	519	517	
0	0	0	0	0	516	517	
1	0	0	0	0	515	511	
2	0	0	0	0	512	510	
3	0	0	0	0	510	509	
4	0	0	0	0	506	507	
5	0	0	0	0	505	506	
6	0	0	0	0	503	503	
7	0	0	0	0	508	506	
8	0	0	0	0	508	511	
9	0	0	0	0	512	513	
10	0	0	0	0	515	515	
11	0	0	0	0	513	515	
12	0	0	0	0	515	512	
13	0	0	0	0	514	515	
14	0	0	0	0	515	515	
15	0	0	0	0	518	513	
0	0	0	0	0	519	508	
1	0	0	0	0	519	507	
2	0	0	0	0	514	507	
3	0	0	0	0	510	514	
4	0	0	0	0	505	516	
5	0	0	0	0	500	513	
6	0	0	0	0	494	502	
7	0	0	0	0	498	504	
8	0	0	0	0	503	508	
9	0	0	0	0	511	516	
10	0	0	0	0	514	508	
11	0	0	0	0	513	503	
12	0	0	0	0	513	507	
13	0	0	0	0	510	508	
14	0	0	0	0	507	509	
15	0	0	0	0	506	511	
0	0	0	0	0	507	512	
1	0	0	0	0	510	511	
2	0	0	0	0	514	511	
3	0	0	0	0	512	511	
4	0	0	0	0	514	509	
5	0	0	0	0	513	509	
6	0	0	0	0	515	509	
7	0	0	0	0	516	512	
8	0	0	0	0	512	512	
9	0	0	0	0	510	512	
10	0	0	0	0	512	513	
11	0	0	0	0	514	513	
12	0	0	0	0	513	514	
13	0	0	0	0	513	510	
14	0	0	0	0	512	511	
15	0	0	0	0	510	512	
0	0	0	0	0	513	511	
1	0	0	0	0	511	511	
2	0	0	0	0	511	511	
3	0	0	0	0	509	511	
4	0	0	0	0	510	514	
5	0	0	0	0	510	515	
6	0	0	0	0	507	508	
7	0	0	0	0	509	507	
8	0	0	0	0	510	502	
9	0	0	0	0	512	505	
10	0	0	0	0	512	509	
11	0	0	0	0	516	510	
12	0	0	0	0	515	509	
13	0	0	0	0	513	508	
14	0	0	0	0	510	510	
15	0	0	0	0	510	512	
0	0	0	0	0	508	512	
1	0	0	0	0	507	512	
2	0	0	0	0	505	511	
3	0	0	0	0	504	512	
4	0	0	0	0	506	515	
5	0	0	0	0	508	514	
6	0	0	0	0	510	514	
7	0	0	0	0	509	513	
8	0	0	0	0	511	510	
9	0	0	0	0	512	509	
10	0	0	0	0	513	507	
11	0	0	0	0	513	502	
12	0	0	0	0	512	508	
13	0	0	0	0	511	511	
14	0	0	0	0	512	510	
15	0	0	0	0	509	509	
0	0	0	0	0	511	512	
1	0	0	0	0	512	511	
2	0	0	0	0	511	511	
3	0	0	0	0	509	513	
4	0	0	0	0	511	513	
5	0	0	0	0	512	512	
6	0	0	0	0	511	512	
7	0	0	0	0	512	511	
8	0	0	0	0	513	510	
9	0	0	0	0	515	512	
10	0	0	0	0	511	505	
11	0	0	0	0	510	510	
12	0	0	0	0	508	513	
13	0	0	0	0	507	514	
14	0	0	0	0	508	512	
15	0	0	0	0	506	514	
0	0	0	0	0	507	513	
1	0	0	0	0	511	508	
2	0	0	0	0	512	505	
3	0	0	0	0	513	509	
4	0	0	0	0	512	508	
5	0	0	0	0	509	507	
6	0	0	0	0	511	506	
7	0	0	0	0	512	504	
8	0	0	0	0	514	503	
9	0	0	0	0	512	505	
10	0	0	0	0	513	509	
11	0	0	0	0	511	510	
12	0	0	0	0	512	508	
13	0	0	0	0	513	511	
14	0	0	0	0	509	515	
15	0	0	0	0	506	518	
0	0	0	0	0	509	515	
1	0	0	0	0	508	511	
2	0	0	0	0	511	508	
3	0	0	0	0	509	510	
4	0	0	0	0	509	510	
5	0	0	0	0	505	511	
6	0	0	0	0	502	513	
7	0	0	0	0	504	513	
8	0	0	0	0	511	514	
9	0	0	0	0	512	512	
10	0	0	0	0	514	513	
11	0	0	0	0	516	513	
12	0	0	0	0	515	513	
13	0	0	0	0	513	512	
14	0	0	0	0	510	506	
15	0	0	0	0	511	501	
0	0	0	0	0	512	505	
1	0	0	0	0	514	507	
2	0	0	0	0	515	516	
3	0	0	0	0	512	520	
4	0	0	0	0	511	516	
5	0	0	0	0	512	511	
6	0	0	0	0	511	511	
7	0	0	0	0	511	509	
8	0	0	0	0	511	506	
9	0	0	0	0	511	509	
10	0	0	0	0	510	505	
11	0	0	0	0	508	507	
12	0	0	0	0	509	511	
13	0	0	0	0	509	513	
14	0	0	0	0	510	513	
15	0	0	0	0	510	513	
0	0	0	0	0	513	518	
1	0	0	0	0	514	514	
2	0	0	0	0	510	508	
3	0	0	0	0	513	503	
4	0	0	0	0	509	497	
5	0	0	0	0	508	500	
6	0	0	0	0	507	503	
7	0	0	0	0	510	503	
8	0	0	0	0	511	507	
9	0	0	0	0	509	510	
10	0	0	0	0	510	511	
11	0	0	0	0	511	513	
12	0	0	0	0	511	519	
13	0	0	0	0	511	517	
14	0	0	0	0	510	512	
15	0	0	0	0	513	509	
0	0	0	0	0	513	512	
1	0	0	0	0	511	508	
2	0	0	0	0	511	509	
3	0	0	0	0	511	509	
4	0	0	0	0	507	512	
5	0	0	0	0	511	516	
6	0	0	0	0	509	517	
7	0	0	0	0	511	511	
8	0	0	0	0	508	507	
9	0	0	0	0	511	510	
10	0	0	0	0	511	510	
11	0	0	0	0	511	509	
12	0	0	0	0	510	510	
13	0	0	0	0	511	514	
14	0	0	0	0	512	516	
15	0	0	0	0	512	512	
0	0	0	0	0	512	513	
1	0	0	0	0	511	510	
2	0	0	0	0	512	507	
3	0	0	0	0	511	506	
4	0	0	0	0	508	505	
5	0	0	0	0	511	505	
6	0	0	0	0	511	507	
7	0	0	0	0	510	510	
8	0	0	0	0	510	510	
9	0	0	0	0	510	511	
10	0	0	0	0	510	510	
11	0	0	0	0	509	513	
12	0	0	0	0	511	512	
13	0	0	0	0	511	508	
14	0	0	0	0	512	504	
15	0	0	0	0	514	513	
0	0	0	0	0	515	524	
1	0	0	0	0	510	526	
2	0	0	0	0	507	524	
3	0	0	0	0	507	515	
4	0	0	0	0	510	504	
5	0	0	0	0	512	495	
6	0	0	0	0	514	487	
7	0	0	0	0	514	489	
8	0	0	0	0	513	500	
9	0	0	0	0	512	512	
10	0	0	0	0	511	518	
11	0	0	0	0	510	513	
12	0	0	0	0	507	507	
13	0	0	0	0	504	507	
14	0	0	0	0	505	511	
15	0	0	0	0	508	514	
0	0	0	0	0	510	514	
1	0	0	0	0	511	517	
2	0	0	0	0	509	515	
3	0	0	0	0	512	516	
4	0	0	0	0	513	513	
5	0	0	0	0	513	514	
6	0	0	0	0	511	513	
7	0	0	0	0	511	512	
8	0	0	0	0	512	511	
9	0	0	0	0	510	512	
10	0	0	0	0	512	507	
11	0	0	0	0	512	508	
12	0	0	0	0	511	519	
13	0	0	0	0	511	521	
14	0	0	0	0	510	521	
15	0	0	0	0	513	516	
0	0	0	0	0	511	512	
1	0	0	0	0	514	507	
2	0	0	0	0	515	501	
3	0	0	0	0	520	501	
4	0	0	0	0	519	497	
5	0	0	0	0	515	502	
6	0	0	0	0	516	507	
7	0	0	0	0	510	513	
8	0	0	0	0	506	515	
9	0	0	0	0	504	513	
10	0	0	0	0	496	511	
11	0	0	0	0	493	508	
12	0	0	0	0	497	505	
13	0	0	0	0	506	504	
14	0	0	0	0	511	506	
15	0	0	0	0	512	507	
0	0	0	0	0	518	509	
1	0	0	0	0	515	510	
2	0	0	0	0	513	512	
3	0	0	0	0	516	508	
4	0	0	0	0	512	511	
5	0	0	0	0	511	515	
6	0	0	0	0	515	510	
7	0	0	0	0	512	504	
8	0	0	0	0	513	512	
9	0	0	0	0	516	511	
10	0	0	0	0	515	510	
11	0	0	0	0	516	508	
12	0	0	0	0	515	509	
13	0	0	0	0	519	512	
14	0	0	0	0	518	515	
15	0	0	0	0	503	519	
0	0	0	0	0	501	512	
1	0	0	0	0	503	512	
2	0	0	0	0	502	515	
3	0	0	0	0	498	511	
4	0	0	0	0	502	506	
5	0	0	0	0	510	503	
6	0	0	0	0	513	505	
7	0	0	0	0	514	515	
8	0	0	0	0	513	521	
9	0	0	0	0	511	521	
10	0	0	0	0	509	518	
11	0	0	0	0	506	513	
12	0	0	0	0	509	508	
13	0	0	0	0	521	507	
14	0	0	0	0	524	508	
15	0	0	0	0	528	508	
0	0	0	0	0	531	504	
1	0	0	0	0	523	505	
2	0	0	0	0	512	504	
3	0	0	0	0	501	507	
4	0	0	0	0	491	514	
5	0	0	0	0	485	517	
6	0	0	0	0	484	513	
7	0	0	0	0	493	512	
8	0	0	0	0	506	510	
9	0	0	0	0	512	512	
10	0	0	0	0	516	518	
11	0	0	0	0	515	519	
12	0	0	0	0	517	511	
13	0	0	0	0	515	508	
14	0	0	0	0	516	505	
15	0	0	0	0	519	507	
0	0	0	0	0	511	505	
1	0	0	0	0	515	502	
2	0	0	0	0	518	502	
3	0	0	0	0	518	500	
4	0	0	0	0	524	504	
5	0	0	0	0	523	510	
6	0	0	0	0	516	515	
7	0	0	0	0	513	516	
8	0	0	0	0	510	519	
9	0	0	0	0	506	520	
10	0	0	0	0	501	517	
11	0	0	0	0	503	512	
12	0	0	0	0	502	510	
13	0	0	0	0	503	504	
14	0	0	0	0	507	504	
15	0	0	0	0	511	508	
0	0	0	0	0	510	510	
1	0	0	0	0	511	508	
2	0	0	0	0	513	508	
3	0	0	0	0	516	505	
4	0	0	0	0	514	507	
5	0	0	0	0	512	511	
6	0	0	0	0	508	512	
7	0	0	0	0	507	510	
8	0	0	0	0	507	513	
9	0	0	0	0	509	515	
10	0	0	0	0	509	516	
11	0	0	0	0	508	512	
12	0	0	0	0	510	509	
13	0	0	0	0	510	514	
14	0	0	0	0	511	509	
15	0	0	0	0	513	508	
0	0	0	0	0	515	509	
1	0	0	0	0	512	512	
2	0	0	0	0	512	511	
3	0	0	0	0	510	511	
4	0	0	0	0	510	509	
5	0	0	0	0	512	507	
6	0	0	0	0	511	507	
7	0	0	0	0	509	511	
8	0	0	0	0	510	509	
9	0	0	0	0	511	508	
10	0	0	0	0	512	511	
11	0	0	0	0	513	515	
12	0	0	0	0	511	517	
13	0	0	0	0	512	514	
14	0	0	0	0	511	511	
15	0	0	0	0	513	508	
0	0	0	0	0	516	510	
1	0	0	0	0	512	515	
2	0	0	0	0	512	514	
3	0	0	0	0	512	513	
4	0	0	0	0	510	512	
5	0	0	0	0	504	509	
6	0	0	0	0	504	509	
7	0	0	0	0	504	512	
8	0	0	0	0	504	510	
9	0	0	0	0	507	508	
10	0	0	0	0	508	508	
11	0	0	0	0	510	509	
12	0	0	0	0	513	510	
13	0	0	0	0	515	512	
14	0	0	0	0	517	515	
15	0	0	0	0	519	517	
0	0	0	0	0	518	519	
1	0	0	0	0	513	516	
2	0	0	0	0	511	510	
3	0	0	0	0	510	503	
4	0	0	0	0	505	505	
5	0	0	0	0	504	499	
6	0	0	0	0	506	496	
7	0	0	0	0	507	506	
8	0	0	0	0	513	514	
9	0	0	0	0	511	515	
10	0	0	0	0	513	513	
11	0	0	0	0	512	510	
12	0	0	0	0	510	510	
13	0	0	0	0	504	510	
14	0	0	0	0	503	512	
15	0	0	0	0	508	513	
0	0	0	0	0	515	519	
1	0	0	0	0	518	520	
2	0	0	0	0	514	522	
3	0	0	0	0	513	519	
4	0	0	0	0	515	514	
5	0	0	0	0	512	504	
6	0	0	0	0	510	498	
7	0	0	0	0	504	502	
8	0	0	0	0	502	507	
9	0	0	0	0	500	509	
10	0	0	0	0	499	508	
11	0	0	0	0	504	512	
12	0	0	0	0	511	510	
13	0	0	0	0	512	511	
14	0	0	0	0	513	514	
15	0	0	0	0	516	511	
0	0	0	0	0	514	500	
1	0	0	0	0	513	497	
2	0	0	0	0	510	494	
3	0	0	0	0	510	497	
4	0	0	0	0	511	505	
5	0	0	0	0	515	508	
6	0	0	0	0	517	510	
7	0	0	0	0	516	510	
8	0	0	0	0	517	513	
9	0	0	0	0	512	513	
10	0	0	0	0	514	515	
11	0	0	0	0	513	515	
12	0	0	0	0	514	512	
13	0	0	0	0	515	510	
14	0	0	0	0	513	507	
15	0	0	0	0	511	509	
0	0	0	0	0	507	510	
1	0	0	0	0	505	514	
2	0	0	0	0	509	518	
3	0	0	0	0	511	517	
4	0	0	0	0	514	516	
5	0	0	0	0	516	515	
6	0	0	0	0	512	514	
7	0	0	0	0	509	515	
8	0	0	0	0	511	511	
9	0	0	0	0	510	512	
10	0	0	0	0	508	510	
11	0	0	0	0	504	512	
12	0	0	0	0	503	511	
13	0	0	0	0	506	514	
14	0	0	0	0	507	515	
15	0	0	0	0	505	514	
0	0	0	0	0	508	510	
1	0	0	0	0	512	509	
2	0	0	0	0	515	507	
3	0	0	0	0	513	503	
4	0	0	0	0	513	506	
5	0	0	0	0	510	508	
6	0	0	0	0	511	512	
7	0	0	0	0	511	511	
8	0	0	0	0	511	509	
9	0	0	0	0	512	506	
10	0	0	0	0	511	505	
11	0	0	0	0	512	504	
12	0	0	0	0	512	508	
13	0	0	0	0	512	515	
14	0	0	0	0	512	518	
15	0	0	0	0	513	518	
0	0	0	0	0	515	517	
1	0	0	0	0	514	519	
2	0	0	0	0	517	513	
3	0	0	0	0	516	510	
4	0	0	0	0	515	506	
5	0	0	0	0	512	502	
6	0	0	0	0	509	501	
7	0	0	0	0	503	505	
8	0	0	0	0	504	504	
9	0	0	0	0	505	507	
10	0	0	0	0	500	508	
11	0	0	0	0	501	508	
12	0	0	0	0	505	508	
13	0	0	0	0	506	514	
14	0	0	0	0	511	511	
15	0	0	0	0	514	511	
0	0	0	0	0	515	509	
1	0	0	0	0	516	507	
2	0	0	0	0	516	506	
3	0	0	0	0	516	512	
4	0	0	0	0	516	514	
5	0	0	0	0	514	514	
6	0	0	0	0	515	513	
7	0	0	0	0	512	512	
8	0	0	0	0	509	508	
9	0	0	0	0	507	510	
10	0	0	0	0	508	508	
11	0	0	0	0	508	510	
12	0	0	0	0	507	512	
13	0	0	0	0	506	516	
14	0	0	0	0	500	515	
15	0	0	0	0	505	512	
0	0	0	0	0	506	510	
1	0	0	0	0	508	512	
2	0	0	0	0	515	509	
3	0	0	0	0	517	515	
4	0	0	0	0	516	515	
5	0	0	0	0	515	516	
6	0	0	0	0	513	514	
7	0	0	0	0	513	513	
8	0	0	0	0	512	517	
9	0	0	0	0	511	514	
10	0	0	0	0	510	512	
11	0	0	0	0	510	511	
12	0	0	0	0	511	503	
13	0	0	0	0	511	495	
14	0	0	0	0	516	491	
15	0	0	0	0	519	495	
0	0	0	0	0	516	508	
1	0	0	0	0	513	513	
2	0	0	0	0	509	513	
3	0	0	0	0	504	516	
4	0	0	0	0	500	516	
5	0	0	0	0	496	517	
6	0	0	0	0	502	514	
7	0	0	0	0	511	508	
8	0	0	0	0	514	503	
9	0	0	0	0	515	507	
10	0	0	0	0	510	514	
11	0	0	0	0	511	512	
12	0	0	0	0	510	509	
13	0	0	0	0	508	505	
14	0	0	0	0	508	502	
15	0	0	0	0	511	504	
0	0	0	0	0	515	514	
1	0	0	0	0	515	518	
2	0	0	0	0	512	516	
3	0	0	0	0	508	513	
4	0	0	0	0	509	510	
5	0	0	0	0	513	512	
6	0	0	0	0	515	512	
7	0	0	0	0	516	513	
8	0	0	0	0	512	516	
9	0	0	0	0	509	509	
10	0	0	0	0	509	507	
11	0	0	0	0	509	512	
12	0	0	0	0	503	513	
13	0	0	0	0	503	514	
14	0	0	0	0	507	514	
15	0	0	0	0	508	509	
0	0	0	0	0	514	508	
1	0	0	0	0	512	505	
2	0	0	0	0	512	504	
3	0	0	0	0	511	505	
4	0	0	0	0	510	505	
5	0	0	0	0	511	508	
6	0	0	0	0	511	511	
7	0	0	0	0	514	511	
8	0	0	0	0	514	510	
9	0	0	0	0	515	508	
10	0	0	0	0	514	509	
11	0	0	0	0	517	507	
12	0	0	0	0	512	511	
13	0	0	0	0	510	515	
14	0	0	0	0	508	519	
15	0	0	0	0	509	515	
0	0	0	0	0	511	516	
1	0	0	0	0	511	512	
2	0	0	0	0	513	513	
3	0	0	0	0	512	512	
4	0	0	0	0	515	513	
5	0	0	0	0	514	510	
6	0	0	0	0	509	513	
7	0	0	0	0	506	511	
8	0	0	0	0	507	507	
9	0	0	0	0	508	508	
10	0	0	0	0	514	509	
11	0	0	0	0	511	507	
12	0	0	0	0	509	508	
13	0	0	0	0	511	508	
14	0	0	0	0	507	505	
15	0	0	0	0	503	509	
0	0	0	0	0	507	513	
1	0	0	0	0	508	515	
2	0	0	0	0	513	513	
3	0	0	0	0	516	510	
4	0	0	0	0	517	508	
5	0	0	0	0	518	507	
6	0	0	0	0	514	508	
7	0	0	0	0	508	510	
8	0	0	0	0	510	510	
9	0	0	0	0	507	510	
10	0	0	0	0	506	510	
11	0	0	0	0	503	512	
12	0	0	0	0	508	515	
13	0	0	0	0	512	518	
14	0	0	0	0	512	517	
15	0	0	0	0	513	515	
0	0	0	0	0	512	512	
1	0	0	0	0	513	513	
2	0	0	0	0	513	510	
3	0	0	0	0	511	502	
4	0	0	0	0	511	500	
5	0	0	0	0	510	501	
6	0	0	0	0	508	504	
7	0	0	0	0	508	513	
8	0	0	0	0	508	514	
9	0	0	0	0	508	513	
10	0	0	0	0	514	516	
11	0	0	0	0	512	520	
12	0	0	0	0	509	514	
13	0	0	0	0	503	509	
14	0	0	0	0	508	504	
15	0	0	0	0	512	499	
0	0	0	0	0	514	496	
1	0	0	0	0	513	501	
2	0	0	0	0	511	501	
3	0	0	0	0	512	511	
4	0	0	0	0	514	511	
5	0	0	0	0	512	511	
6	0	0	0	0	512	512	
7	0	0	0	0	514	517	
8	0	0	0	0	512	514	
9	0	0	0	0	508	512	
10	0	0	0	0	510	511	
11	0	0	0	0	507	510	
12	0	0	0	0	510	510	
13	0	0	0	0	512	511	
14	0	0	0	0	511	512	
15	0	0	0	0	512	514	
0	0	0	0	0	512	512	
1	0	0	0	0	510	512	
2	0	0	0	0	515	510	
3	0	0	0	0	513	511	
4	0	0	0	0	509	514	
5	0	0	0	0	511	513	
6	0	0	0	0	514	514	
7	0	0	0	0	511	510	
8	0	0	0	0	512	507	
9	0	0	0	0	511	507	
10	0	0	0	0	509	510	
11	0	0	0	0	508	512	
12	0	0	0	0	507	514	
13	0	0	0	0	508	515	
14	0	0	0	0	513	515	
15	0	0	0	0	516	515	
0	0	0	0	0	515	513	
1	0	0	0	0	516	511	
2	0	0	0	0	515	508	
3	0	0	0	0	511	505	
4	0	0	0	0	503	506	
5	0	0	0	0	503	515	
6	0	0	0	0	501	513	
7	0	0	0	0	501	509	
8	0	0	0	0	502	507	
9	0	0	0	0	504	503	
10	0	0	0	0	508	500	
11	0	0	0	0	511	500	
12	0	0	0	0	513	497	
13	0	0	0	0	512	502	
14	0	0	0	0	512	505	
15	0	0	0	0	514	510	
0	0	0	0	0	516	513	
1	0	0	0	0	514	512	
2	0	0	0	0	514	513	
3	0	0	0	0	516	518	
4	0	0	0	0	515	515	
5	0	0	0	0	515	517	
6	0	0	0	0	513	514	
7	0	0	0	0	512	508	
8	0	0	0	0	511	510	
9	0	0	0	0	510	515	
10	0	0	0	0	507	516	
11	0	0	0	0	505	518	
12	0	0	0	0	509	514	
13	0	0	0	0	512	513	
14	0	0	0	0	513	505	
15	0	0	0	0	515	502	
0	0	0	0	0	517	505	
1	0	0	0	0	511	509	
2	0	0	0	0	513	509	
3	0	0	0	0	511	511	
4	0	0	0	0	510	511	
5	0	0	0	0	506	513	
6	0	0	0	0	504	513	
7	0	0	0	0	510	511	
8	0	0	0	0	512	507	
9	0	0	0	0	509	510	
10	0	0	0	0	510	509	
11	0	0	0	0	510	509	
12	0	0	0	0	511	509	
13	0	0	0	0	511	511	
14	0	0	0	0	508	510	
15	0	0	0	0	510	512	
0	0	0	0	0	511	517	
1	0	0	0	0	511	514	
2	0	0	0	0	513	515	
3	0	0	0	0	512	513	
4	0	0	0	0	512	512	
5	0	0	0	0	511	511	
6	0	0	0	0	510	509	
7	0	0	0	0	508	506	
8	0	0	0	0	506	505	
9	0	0	0	0	500	504	
10	0	0	0	0	502	504	
11	0	0	0	0	506	508	
12	0	0	0	0	508	512	
13	0	0	0	0	511	513	
14	0	0	0	0	515	513	
15	0	0	0	0	514	514	
0	0	0	0	0	515	512	
1	0	0	0	0	516	508	
2	0	0	0	0	514	506	
3	0	0	0	0	512	508	
4	0	0	0	0	512	507	
5	0	0	0	0	512	511	
6	0	0	0	0	513	509	
7	0	0	0	0	515	507	
8	0	0	0	0	514	511	
9	0	0	0	0	512	513	
10	0	0	0	0	510	513	
11	0	0	0	0	506	511	
12	0	0	0	0	503	509	
13	0	0	0	0	504	511	
14	0	0	0	0	507	509	
15	0	0	0	0	511	511	
0	0	0	0	0	515	510	
1	0	0	0	0	516	511	
2	0	0	0	0	519	514	
3	0	0	0	0	519	514	
4	0	0	0	0	517	509	
5	0	0	0	0	515	509	
6	0	0	0	0	511	511	
7	0	0	0	0	503	512	
8	0	0	0	0	504	511	
9	0	0	0	0	502	510	
10	0	0	0	0	502	511	
11	0	0	0	0	505	512	
12	0	0	0	0	511	512	
13	0	0	0	0	511	514	
14	0	0	0	0	511	512	
15	0	0	0	0	511	510	
0	0	0	0	0	511	511	
1	0	0	0	0	511	508	
2	0	0	0	0	511	499	
3	0	0	0	0	513	495	
4	0	0	0	0	511	497	
5	0	0	0	0	508	500	
6	0	0	0	0	508	510	
7	0	0	0	0	510	520	
8	0	0	0	0	510	528	
9	0	0	0	0	508	531	
10	0	0	0	0	510	528	
11	0	0	0	0	515	518	
12	0	0	0	0	516	508	
13	0	0	0	0	518	502	
14	0	0	0	0	514	504	
15	0	0	0	0	513	500	
0	0	0	0	0	512	500	
1	0	0	0	0	510	505	
2	0	0	0	0	509	505	
3	0	0	0	0	508	508	
4	0	0	0	0	510	512	
5	0	0	0	0	509	511	
6	0	0	0	0	507	513	
7	0	0	0	0	509	511	
8	0	0	0	0	510	511	
9	0	0	0	0	510	513	
10	0	0	0	0	510	510	
11	0	0	0	0	509	512	
12	0	0	0	0	512	514	
13	0	0	0	0	510	512	
14	0	0	0	0	511	514	
15	0	0	0	0	511	512	
0	0	0	0	0	515	512	
1	0	0	0	0	514	516	
2	0	0	0	0	512	515	
3	0	0	0	0	510	513	
4	0	0	0	0	510	512	
5	0	0	0	0	511	514	
6	0	0	0	0	512	510	
7	0	0	0	0	512	505	
8	0	0	0	0	512	507	
9	0	0	0	0	512	505	
10	0	0	0	0	511	511	
11	0	0	0	0	512	515	
12	0	0	0	0	513	509	
13	0	0	0	0	511	506	
14	0	0	0	0	511	506	
15	0	0	0	0	511	500	
0	0	0	0	0	510	498	
1	0	0	0	0	504	503	
2	0	0	0	0	503	511	
3	0	0	0	0	504	516	
4	0	0	0	0	507	515	
5	0	0	0	0	511	513	
6	0	0	0	0	515	513	
7	0	0	0	0	519	510	
8	0	0	0	0	519	513	
9	0	0	0	0	516	522	
10	0	0	0	0	515	528	
11	0	0	0	0	511	520	
12	0	0	0	0	514	510	
13	0	0	0	0	507	502	
14	0	0	0	0	505	496	
15	0	0	0	0	504	492	
0	0	0	0	0	504	495	
1	0	0	0	0	504	508	
2	0	0	0	0	507	513	
3	0	0	0	0	507	515	
4	0	0	0	0	507	511	
5	0	0	0	0	509	510	
6	0	0	0	0	515	515	
7	0	0	0	0	518	514	
8	0	0	0	0	519	516	
9	0	0	0	0	515	514	
10	0	0	0	0	512	510	
11	0	0	0	0	511	511	
12	0	0	0	0	505	512	
13	0	0	0	0	507	511	
14	0	0	0	0	505	509	
15	0	0	0	0	503	506	
0	0	0	0	0	508	506	
1	0	0	0	0	513	513	
2	0	0	0	0	516	516	
3	0	0	0	0	516	514	
4	0	0	0	0	516	518	
5	0	0	0	0	516	516	
6	0	0	0	0	513	512	
7	0	0	0	0	513	512	
8	0	0	0	0	514	514	
9	0	0	0	0	512	518	
10	0	0	0	0	512	519	
11	0	0	0	0	512	510	
12	0	0	0	0	515	500	
13	0	0	0	0	513	499	
14	0	0	0	0	510	504	
15	0	0	0	0	508	513	
0	0	0	0	0	508	515	
1	0	0	0	0	504	512	
2	0	0	0	0	501	510	
3	0	0	0	0	502	508	
4	0	0	0	0	502	506	
5	0	0	0	0	501	504	
6	0	0	0	0	498	505	
7	0	0	0	0	504	510	
8	0	0	0	0	512	515	
9	0	0	0	0	517	517	
10	0	0	0	0	519	520	
11	0	0	0	0	521	516	
12	0	0	0	0	518	507	
13	0	0	0	0	516	497	
14	0	0	0	0	516	496	
15	0	0	0	0	513	501	
0	0	0	0	0	509	504	
1	0	0	0	0	511	506	
2	0	0	0	0	506	512	
3	0	0	0	0	507	516	
4	0	0	0	0	516	511	
5	0	0	0	0	517	511	
6	0	0	0	0	512	512	
7	0	0	0	0	512	513	
8	0	0	0	0	510	514	
9	0	0	0	0	508	514	
10	0	0	0	0	504	514	
11	0	0	0	0	504	511	
12	0	0	0	0	505	509	
13	0	0	0	0	507	511	
14	0	0	0	0	510	515	
15	0	0	0	0	511	512	
0	0	0	0	0	515	513	
1	0	0	0	0	513	516	
2	0	0	0	0	513	512	
3	0	0	0	0	511	508	
4	0	0	0	0	512	507	
5	0	0	0	0	512	510	
6	0	0	0	0	514	509	
7	0	0	0	0	514	512	
8	0	0	0	0	512	513	
9	0	0	0	0	512	513	
10	0	0	0	0	512	507	
11	0	0	0	0	515	505	
12	0	0	0	0	512	507	
13	0	0	0	0	512	509	
14	0	0	0	0	512	512	
15	0	0	0	0	510	512	
0	0	0	0	0	511	512	
1	0	0	0	0	507	509	
2	0	0	0	0	506	505	
3	0	0	0	0	510	503	
4	0	0	0	0	510	504	
5	0	0	0	0	510	506	
6	0	0	0	0	510	510	
7	0	0	0	0	509	512	
8	0	0	0	0	510	514	
9	0	0	0	0	511	518	
10	0	0	0	0	513	512	
11	0	0	0	0	515	511	
12	0	0	0	0	515	507	
13	0	0	0	0	514	508	
14	0	0	0	0	511	512	
15	0	0	0	0	504	522	
0	0	0	0	0	502	523	
1	0	0	0	0	503	520	
2	0	0	0	0	508	514	
3	0	0	0	0	512	510	
4	0	0	0	0	507	508	
5	0	0	0	0	508	507	
6	0	0	0	0	509	502	
7	0	0	0	0	514	499	
8	0	0	0	0	518	502	
9	0	0	0	0	522	502	
10	0	0	0	0	523	505	
11	0	0	0	0	523	505	
12	0	0	0	0	516	509	
13	0	0	0	0	512	514	
14	0	0	0	0	511	515	
15	0	0	0	0	507	515	
0	0	0	0	0	501	516	
1	0	0	0	0	496	515	
2	0	0	0	0	499	515	
3	0	0	0	0	502	514	
4	0	0	0	0	504	509	
5	0	0	0	0	505	513	
6	0	0	0	0	503	520	
7	0	0	0	0	511	521	
8	0	0	0	0	514	519	
9	0	0	0	0	515	511	
10	0	0	0	0	510	499	
11	0	0	0	0	512	495	
12	0	0	0	0	515	493	
13	0	0	0	0	514	500	
14	0	0	0	0	513	505	
15	0	0	0	0	513	512	
0	0	0	0	0	516	515	
1	0	0	0	0	517	518	
2	0	0	0	0	514	517	
3	0	0	0	0	512	515	
4	0	0	0	0	512	513	
5	0	0	0	0	511	515	
6	0	0	0	0	510	509	
7	0	0	0	0	511	508	
8	0	0	0	0	509	511	
9	0	0	0	0	507	510	
10	0	0	0	0	511	506	
11	0	0	0	0	512	504	
12	0	0	0	0	512	500	
13	0	0	0	0	511	500	
14	0	0	0	0	511	501	
15	0	0	0	0	513	506	
0	0	0	0	0	512	508	
1	0	0	0	0	512	512	
2	0	0	0	0	512	512	
3	0	0	0	0	511	511	
4	0	0	0	0	508	512	
5	0	0	0	0	509	510	
6	0	0	0	0	505	511	
7	0	0	0	0	508	511	
8	0	0	0	0	508	515	
9	0	0	0	0	510	517	
10	0	0	0	0	511	516	
11	0	0	0	0	510	514	
12	0	0	0	0	508	513	
13	0	0	0	0	512	515	
14	0	0	0	0	509	515	
15	0	0	0	0	509	517	
0	0	0	0	0	512	518	
1	0	0	0	0	513	516	
2	0	0	0	0	512	512	
3	0	0	0	0	512	512	
4	0	0	0	0	515	508	
5	0	0	0	0	511	501	
6	0	0	0	0	514	500	
7	0	0	0	0	512	503	
8	0	0	0	0	515	500	
9	0	0	0	0	514	507	
10	0	0	0	0	512	510	
11	0	0	0	0	513	511	
12	0	0	0	0	511	517	
13	0	0	0	0	515	517	
14	0	0	0	0	513	514	
15	0	0	0	0	510	508	
0	0	0	0	0	511	507	
1	0	0	0	0	506	509	
2	0	0	0	0	503	511	
3	0	0	0	0	499	510	
4	0	0	0	0	500	513	
5	0	0	0	0	505	513	
6	0	0	0	0	512	511	
7	0	0	0	0	516	504	
8	0	0	0	0	520	503	
9	0	0	0	0	520	507	
10	0	0	0	0	515	517	
11	0	0	0	0	511	518	
12	0	0	0	0	505	512	
13	0	0	0	0	504	504	
14	0	0	0	0	504	504	
15	0	0	0	0	503	509	
0	0	0	0	0	502	514	
1	0	0	0	0	510	512	
2	0	0	0	0	511	514	
3	0	0	0	0	514	512	
4	0	0	0	0	514	513	
5	0	0	0	0	511	518	
6	0	0	0	0	517	515	
7	0	0	0	0	516	510	
8	0	0	0	0	515	505	
9	0	0	0	0	515	504	
10	0	0	0	0	516	507	
11	0	0	0	0	516	507	
12	0	0	0	0	510	505	
13	0	0	0	0	508	507	
14	0	0	0	0	509	511	
15	0	0	0	0	509	512	
0	0	0	0	0	507	510	
1	0	0	0	0	504	506	
2	0	0	0	0	504	512	
3	0	0	0	0	508	515	
4	0	0	0	0	510	517	
5	0	0	0	0	511	513	
6	0	0	0	0	514	508	
7	0	0	0	0	514	507	
8	0	0	0	0	512	512	
9	0	0	0	0	512	515	
10	0	0	0	0	514	515	
11	0	0	0	0	513	512	
12	0	0	0	0	511	511	
13	0	0	0	0	512	509	
14	0	0	0	0	511	507	
15	0	0	0	0	512	507	
0	0	0	0	0	514	506	
1	0	0	0	0	511	507	
2	0	0	0	0	511	515	
3	0	0	0	0	510	514	
4	0	0	0	0	508	514	
5	0	0	0	0	504	513	
6	0	0	0	0	505	509	
7	0	0	0	0	504	510	
8	0	0	0	0	510	511	
9	0	0	0	0	520	510	
10	0	0	0	0	521	504	
11	0	0	0	0	515	501	
12	0	0	0	0	514	507	
13	0	0	0	0	512	509	
14	0	0	0	0	509	511	
15	0	0	0	0	503	511	
0	0	0	0	0	497	510	
1	0	0	0	0	501	513	
2	0	0	0	0	504	515	
3	0	0	0	0	505	511	
4	0	0	0	0	509	515	
5	0	0	0	0	510	515	
6	0	0	0	0	511	512	
7	0	0	0	0	512	512	
8	0	0	0	0	517	511	
9	0	0	0	0	515	508	
10	0	0	0	0	516	510	
11	0	0	0	0	516	513	
12	0	0	0	0	513	513	
13	0	0	0	0	512	516	
14	0	0	0	0	511	513	
15	0	0	0	0	511	512	
0	0	0	0	0	512	511	
1	0	0	0	0	514	509	
2	0	0	0	0	513	504	
3	0	0	0	0	512	502	
4	0	0	0	0	511	504	
5	0	0	0	0	506	504	
6	0	0	0	0	499	511	
7	0	0	0	0	499	514	
8	0	0	0	0	506	509	
9	0	0	0	0	511	505	
10	0	0	0	0	513	510	
11	0	0	0	0	514	507	
12	0	0	0	0	513	509	
13	0	0	0	0	513	505	
14	0	0	0	0	512	506	
15	0	0	0	0	513	502	
0	0	0	0	0	516	508	
1	0	0	0	0	515	508	
2	0	0	0	0	515	513	
3	0	0	0	0	515	508	
4	0	0	0	0	516	509	
5	0	0	0	0	512	508	
6	0	0	0	0	509	509	
7	0	0	0	0	507	510	
8	0	0	0	0	510	515	
9	0	0	0	0	509	523	
10	0	0	0	0	507	519	
11	0	0	0	0	505	516	
12	0	0	0	0	510	518	
13	0	0	0	0	514	508	
14	0	0	0	0	514	510	
15	0	0	0	0	514	511	
0	0	0	0	0	512	511	
1	0	0	0	0	512	508	
2	0	0	0	0	513	506	
3	0	0	0	0	511	506	
4	0	0	0	0	513	508	
5	0	0	0	0	512	510	
6	0	0	0	0	509	513	
7	0	0	0	0	504	513	
8	0	0	0	0	507	512	
9	0	0	0	0	506	516	
10	0	0	0	0	505	514	
11	0	0	0	0	508	516	
12	0	0	0	0	509	512	
13	0	0	0	0	511	518	
14	0	0	0	0	511	513	
15	0	0	0	0	511	510	
0	0	0	0	0	512	511	
1	0	0	0	0	510	512	
2	0	0	0	0	509	511	
3	0	0	0	0	510	513	
4	0	0	0	0	509	513	
5	0	0	0	0	509	508	
6	0	0	0	0	510	501	
7	0	0	0	0	511	498	
8	0	0	0	0	513	501	
9	0	0	0	0	511	503	
10	0	0	0	0	515	509	
11	0	0	0	0	513	513	
12	0	0	0	0	513	513	
13	0	0	0	0	511	514	
14	0	0	0	0	511	513	
15	0	0	0	0	512	508	
0	0	0	0	0	513	508	
1	0	0	0	0	510	514	
2	0	0	0	0	511	518	
3	0	0	0	0	510	518	
4	0	0	0	0	511	514	
5	0	0	0	0	510	504	
6	0	0	0	0	512	508	
7	0	0	0	0	512	511	
8	0	0	0	0	513	507	
9	0	0	0	0	511	504	
10	0	0	0	0	511	505	
11	0	0	0	0	510	510	
12	0	0	0	0	510	517	
13	0	0	0	0	509	519	
14	0	0	0	0	508	515	
15	0	0	0	0	508	512	
0	0	0	0	0	508	508	
1	0	0	0	0	510	501	
2	0	0	0	0	506	505	
3	0	0	0	0	506	508	
4	0	0	0	0	511	511	
5	0	0	0	0	512	510	
6	0	0	0	0	513	500	
7	0	0	0	0	512	496	
8	0	0	0	0	514	503	
9	0	0	0	0	515	505	
10	0	0	0	0	513	502	
11	0	0	0	0	512	505	
12	0	0	0	0	509	509	
13	0	0	0	0	511	515	
14	0	0	0	0	511	520	
15	0	0	0	0	508	520	
0	0	0	0	0	508	514	
1	0	0	0	0	511	512	
2	0	0	0	0	511	514	
3	0	0	0	0	513	515	
4	0	0	0	0	513	516	
5	0	0	0	0	512	513	
6	0	0	0	0	514	512	
7	0	0	0	0	509	514	
8	0	0	0	0	506	515	
9	0	0	0	0	509	515	
10	0	0	0	0	511	514	
11	0	0	0	0	510	513	
12	0	0	0	0	507	509	
13	0	0	0	0	511	506	
14	0	0	0	0	511	507	
15	0	0	0	0	512	509	
0	0	0	0	0	507	511	
1	0	0	0	0	507	512	
2	0	0	0	0	508	511	
3	0	0	0	0	508	512	
4	0	0	0	0	507	512	
5	0	0	0	0	507	509	
6	0	0	0	0	511	505	
7	0	0	0	0	514	506	
8	0	0	0	0	515	507	
9	0	0	0	0	515	511	
10	0	0	0	0	513	511	
11	0	0	0	0	513	507	
12	0	0	0	0	509	505	
13	0	0	0	0	512	509	
14	0	0	0	0	514	509	
15	0	0	0	0	512	510	
0	0	0	0	0	512	511	
1	0	0	0	0	512	512	
2	0	0	0	0	510	514	
3	0	0	0	0	510	511	
4	0	0	0	0	509	511	
5	0	0	0	0	511	511	
6	0	0	0	0	511	511	
7	0	0	0	0	511	511	
8	0	0	0	0	511	512	
9	0	0	0	0	512	512	
10	0	0	0	0	511	511	
11	0	0	0	0	509	507	
12	0	0	0	0	511	509	
13	0	0	0	0	507	510	
14	0	0	0	0	507	509	
15	0	0	0	0	507	515	
0	0	0	0	0	509	516	
1	0	0	0	0	511	516	
2	0	0	0	0	510	513	
3	0	0	0	0	507	508	
4	0	0	0	0	509	504	
5	0	0	0	0	513	500	
6	0	0	0	0	514	504	
7	0	0	0	0	511	508	
8	0	0	0	0	512	510	
9	0	0	0	0	510	513	
10	0	0	0	0	511	512	
11	0	0	0	0	508	514	
12	0	0	0	0	505	515	
13	0	0	0	0	507	511	
14	0	0	0	0	512	509	
15	0	0	0	0	515	505	
0	0	0	0	0	511	507	
1	0	0	0	0	513	510	
2	0	0	0	0	515	510	
3	0	0	0	0	513	514	
4	0	0	0	0	513	518	
5	0	0	0	0	511	516	
6	0	0	0	0	509	514	
7	0	0	0	0	512	508	
8	0	0	0	0	508	503	
9	0	0	0	0	506	505	
10	0	0	0	0	512	512	
11	0	0	0	0	511	517	
12	0	0	0	0	508	527	
13	0	0	0	0	511	525	
14	0	0	0	0	516	519	
15	0	0	0	0	519	514	
0	0	0	0	0	519	503	
1	0	0	0	0	519	493	
2	0	0	0	0	512	489	
3	0	0	0	0	507	486	
4	0	0	0	0	505	497	
5	0	0	0	0	504	504	
6	0	0	0	0	503	504	
7	0	0	0	0	502	510	
8	0	0	0	0	501	513	
9	0	0	0	0	501	514	
10	0	0	0	0	507	516	
11	0	0	0	0	512	514	
12	0	0	0	0	515	516	
13	0	0	0	0	516	516	
14	0	0	0	0	516	519	
15	0	0	0	0	514	518	
0	0	0	0	0	515	518	
1	0	0	0	0	513	520	
2	0	0	0	0	509	516	
3	0	0	0	0	512	513	
4	0	0	0	0	520	508	
5	0	0	0	0	518	508	
6	0	0	0	0	514	505	
7	0	0	0	0	508	505	
8	0	0	0	0	506	504	
9	0	0	0	0	502	499	
10	0	0	0	0	507	497	
11	0	0	0	0	508	504	
12	0	0	0	0	510	514	
13	0	0	0	0	514	519	
14	0	0	0	0	510	519	
15	0	0	0	0	510	517	
0	0	0	0	0	507	512	
1	0	0	0	0	510	510	
2	0	0	0	0	509	511	
3	0	0	0	0	512	509	
4	0	0	0	0	513	508	
5	0	0	0	0	515	508	
6	0	0	0	0	516	508	
7	0	0	0	0	512	511	
8	0	0	0	0	511	513	
9	0	0	0	0	504	514	
10	0	0	0	0	504	512	
11	0	0	0	0	508	512	
12	0	0	0	0	509	513	
13	0	0	0	0	511	514	
14	0	0	0	0	511	511	
15	0	0	0	0	511	509	
0	0	0	0	0	511	510	
1	0	0	0	0	512	510	
2	0	0	0	0	512	508	
3	0	0	0	0	511	506	
4	0	0	0	0	510	510	
5	0	0	0	0	509	511	
6	0	0	0	0	510	511	
7	0	0	0	0	512	510	
8	0	0	0	0	512	511	
9	0	0	0	0	517	512	
10	0	0	0	0	518	512	
11	0	0	0	0	519	511	
12	0	0	0	0	519	507	
13	0	0	0	0	518	507	
14	0	0	0	0	509	509	
15	0	0	0	0	507	509	
0	0	0	0	0	501	510	
1	0	0	0	0	498	510	
2	0	0	0	0	496	511	
3	0	0	0	0	499	510	
4	0	0	0	0	504	510	
5	0	0	0	0	508	512	
6	0	0	0	0	513	510	
7	0	0	0	0	516	506	
8	0	0	0	0	516	507	
9	0	0	0	0	512	505	
10	0	0	0	0	510	507	
11	0	0	0	0	513	509	
12	0	0	0	0	511	515	
13	0	0	0	0	511	518	
14	0	0	0	0	510	515	
15	0	0	0	0	513	514	
0	0	0	0	0	512	513	
1	0	0	0	0	514	509	
2	0	0	0	0	516	507	
3	0	0	0	0	515	507	
4	0	0	0	0	514	512	
5	0	0	0	0	515	510	
6	0	0	0	0	513	510	
7	0	0	0	0	512	508	
8	0	0	0	0	508	511	
9	0	0	0	0	509	510	
10	0	0	0	0	512	509	
11	0	0	0	0	512	511	
12	0	0	0	0	511	510	
13	0	0	0	0	510	505	
14	0	0	0	0	508	504	
15	0	0	0	0	506	507	
0	0	0	0	0	503	509	
1	0	0	0	0	504	508	
2	0	0	0	0	507	504	
3	0	0	0	0	507	510	
4	0	0	0	0	507	513	
5	0	0	0	0	511	514	
6	0	0	0	0	512	512	
7	0	0	0	0	510	515	
8	0	0	0	0	513	513	
9	0	0	0	0	513	512	
10	0	0	0	0	509	512	
11	0	0	0	0	508	511	
12	0	0	0	0	507	511	
13	0	0	0	0	510	510	
14	0	0	0	0	511	511	
15	0	0	0	0	512	513	
0	0	0	0	0	516	514	
1	0	0	0	0	515	512	
2	0	0	0	0	513	510	
3	0	0	0	0	515	516	
4	0	0	0	0	511	516	
5	0	0	0	0	510	515	
6	0	0	0	0	514	513	
7	0	0	0	0	519	512	
8	0	0	0	0	518	499	
9	0	0	0	0	515	498	
10	0	0	0	0	515	507	
11	0	0	0	0	512	508	
12	0	0	0	0	508	504	
13	0	0	0	0	503	499	
14	0	0	0	0	499	499	
15	0	0	0	0	505	508	
0	0	0	0	0	512	520	
1	0	0	0	0	515	523	
2	0	0	0	0	512	516	
3	0	0	0	0	511	505	
4	0	0	0	0	510	508	
5	0	0	0	0	509	511	
6	0	0	0	0	508	510	
7	0	0	0	0	505	513	
8	0	0	0	0	505	514	
9	0	0	0	0	507	513	
10	0	0	0	0	511	512	
11	0	0	0	0	508	515	
12	0	0	0	0	510	519	
13	0	0	0	0	509	512	
14	0	0	0	0	508	510	
15	0	0	0	0	510	510	
0	0	0	0	0	512	511	
1	0	0	0	0	509	512	
2	0	0	0	0	510	509	
3	0	0	0	0	515	503	
4	0	0	0	0	517	498	
5	0	0	0	0	516	496	
6	0	0	0	0	517	505	
7	0	0	0	0	515	511	
8	0	0	0	0	515	518	
9	0	0	0	0	511	518	
10	0	0	0	0	508	518	
11	0	0	0	0	504	518	
12	0	0	0	0	505	511	
13	0	0	0	0	504	514	
14	0	0	0	0	504	513	
15	0	0	0	0	508	516	
0	0	0	0	0	514	511	
1	0	0	0	0	514	509	
2	0	0	0	0	512	509	
3	0	0	0	0	510	507	
4	0	0	0	0	509	505	
5	0	0	0	0	512	505	
6	0	0	0	0	510	509	
7	0	0	0	0	514	508	
8	0	0	0	0	515	507	
9	0	0	0	0	516	506	
10	0	0	0	0	517	511	
11	0	0	0	0	519	513	
12	0	0	0	0	517	514	
13	0	0	0	0	514	518	
14	0	0	0	0	512	517	
15	0	0	0	0	509	517	
0	0	0	0	0	507	512	
1	0	0	0	0	503	506	
2	0	0	0	0	499	506	
3	0	0	0	0	504	507	
4	0	0	0	0	508	503	
5	0	0	0	0	512	500	
6	0	0	0	0	513	505	
7	0	0	0	0	509	506	
8	0	0	0	0	509	516	
9	0	0	0	0	509	520	
10	0	0	0	0	509	520	
11	0	0	0	0	511	513	
12	0	0	0	0	514	510	
13	0	0	0	0	516	508	
14	0	0	0	0	513	507	
15	0	0	0	0	513	504	
0	0	0	0	0	513	506	
1	0	0	0	0	512	510	
2	0	0	0	0	511	509	
3	0	0	0	0	509	512	
4	0	0	0	0	507	510	
5	0	0	0	0	509	508	
6	0	0	0	0	506	505	
7	0	0	0	0	505	504	
8	0	0	0	0	509	513	
9	0	0	0	0	513	522	
10	0	0	0	0	513	519	
11	0	0	0	0	513	513	
12	0	0	0	0	511	506	
13	0	0	0	0	512	508	
14	0	0	0	0	513	513	
15	0	0	0	0	513	518	
0	0	0	0	0	512	516	
1	0	0	0	0	513	508	
2	0	0	0	0	511	505	
3	0	0	0	0	511	507	
4	0	0	0	0	510	504	
5	0	0	0	0	507	506	
6	0	0	0	0	510	509	
7	0	0	0	0	507	508	
8	0	0	0	0	512	508	
9	0	0	0	0	512	513	
10	0	0	0	0	515	514	
11	0	0	0	0	510	515	
12	0	0	0	0	511	513	
13	0	0	0	0	511	511	
14	0	0	0	0	511	517	
15	0	0	0	0	508	514	
0	0	0	0	0	507	511	
1	0	0	0	0	504	509	
2	0	0	0	0	509	505	
3	0	0	0	0	509	499	
4	0	0	0	0	508	507	
5	0	0	0	0	512	506	
6	0	0	0	0	511	507	
7	0	0	0	0	510	506	
8	0	0	0	0	512	507	
9	0	0	0	0	511	512	
10	0	0	0	0	511	516	
11	0	0	0	0	511	515	
12	0	0	0	0	512	512	
13	0	0	0	0	512	511	
14	0	0	0	0	511	513	
15	0	0	0	0	508	512	
0	0	0	0	0	512	508	
1	0	0	0	0	512	513	
2	0	0	0	0	512	513	
3	0	0	0	0	511	511	
4	0	0	0	0	512	505	
5	0	0	0	0	513	502	
6	0	0	0	0	512	507	
7	0	0	0	0	512	513	
8	0	0	0	0	509	515	
9	0	0	0	0	512	515	
10	0	0	0	0	511	514	
11	0	0	0	0	511	512	
12	0	0	0	0	507	511	
13	0	0	0	0	508	505	
14	0	0	0	0	512	501	
15	0	0	0	0	513	505	
0	0	0	0	0	510	504	
1	0	0	0	0	506	513	
2	0	0	0	0	507	513	
3	0	0	0	0	511	512	
4	0	0	0	0	513	512	
5	0	0	0	0	515	511	
6	0	0	0	0	512	513	
7	0	0	0	0	511	512	
8	0	0	0	0	508	513	
9	0	0	0	0	507	514	
10	0	0	0	0	508	513	
11	0	0	0	0	508	514	
12	0	0	0	0	509	512	
13	0	0	0	0	512	508	
14	0	0	0	0	512	510	
15	0	0	0	0	513	512	
0	0	0	0	0	511	510	
1	0	0	0	0	511	508	
2	0	0	0	0	511	506	
3	0	0	0	0	512	510	
4	0	0	0	0	511	512	
5	0	0	0	0	511	514	
6	0	0	0	0	512	512	
7	0	0	0	0	513	508	
8	0	0	0	0	512	504	
9	0	0	0	0	510	507	
10	0	0	0	0	511	512	
11	0	0	0	0	510	514	
12	0	0	0	0	509	516	
13	0	0	0	0	511	510	
14	0	0	0	0	514	505	
15	0	0	0	0	513	506	
0	0	0	0	0	511	505	
1	0	0	0	0	511	507	
2	0	0	0	0	511	507	
3	0	0	0	0	508	509	
4	0	0	0	0	504	511	
5	0	0	0	0	503	516	
6	0	0	0	0	508	515	
7	0	0	0	0	510	515	
8	0	0	0	0	511	512	
9	0	0	0	0	512	509	
10	0	0	0	0	512	508	
11	0	0	0	0	511	511	
12	0	0	0	0	513	511	
13	0	0	0	0	511	511	
14	0	0	0	0	514	509	
15	0	0	0	0	517	506	
0	0	0	0	0	512	511	
1	0	0	0	0	508	512	
2	0	0	0	0	511	509	
3	0	0	0	0	510	509	
4	0	0	0	0	508	512	
5	0	0	0	0	509	510	
6	0	0	0	0	509	508	
7	0	0	0	0	511	510	
8	0	0	0	0	511	508	
9	0	0	0	0	511	510	
10	0	0	0	0	511	512	
11	0	0	0	0	508	517	
12	0	0	0	0	507	513	
13	0	0	0	0	514	518	
14	0	0	0	0	513	513	
15	0	0	0	0	514	506	
0	0	0	0	0	513	504	
1	0	0	0	0	510	506	
2	0	0	0	0	509	507	
3	0	0	0	0	506	511	
4	0	0	0	0	507	517	
5	0	0	0	0	509	515	
6	0	0	0	0	508	512	
7	0	0	0	0	510	513	
8	0	0	0	0	513	507	
9	0	0	0	0	515	504	
10	0	0	0	0	513	502	
11	0	0	0	0	511	508	
12	0	0	0	0	511	508	
13	0	0	0	0	511	505	
14	0	0	0	0	507	507	
15	0	0	0	0	507	512	
0	0	0	0	0	510	516	
1	0	0	0	0	512	516	
2	0	0	0	0	511	513	
3	0	0	0	0	512	511	
4	0	0	0	0	511	510	
5	0	0	0	0	512	510	
6	0	0	0	0	512	508	
7	0	0	0	0	511	509	
8	0	0	0	0	511	512	
9	0	0	0	0	513	515	
10	0	0	0	0	513	512	
11	0	0	0	0	512	515	
12	0	0	0	0	511	512	
13	0	0	0	0	512	511	
14	0	0	0	0	511	508	
15	0	0	0	0	511	509	
0	0	0	0	0	512	511	
1	0	0	0	0	510	511	
2	0	0	0	0	508	513	
3	0	0	0	0	510	511	
4	0	0	0	0	510	509	
5	0	0	0	0	511	512	
6	0	0	0	0	511	511	
7	0	0	0	0	511	511	
8	0	0	0	0	511	508	
9	0	0	0	0	512	510	
10	0	0	0	0	509	513	
11	0	0	0	0	511	512	
12	0	0	0	0	511	510	
13	0	0	0	0	510	507	
14	0	0	0	0	513	508	
15	0	0	0	0	511	508	
0	0	0	0	0	511	509	
1	0	0	0	0	511	507	
2	0	0	0	0	509	509	
3	0	0	0	0	510	508	
4	0	0	0	0	512	509	
5	0	0	0	0	511	511	
6	0	0	0	0	512	511	
7	0	0	0	0	509	513	
8	0	0	0	0	511	512	
9	0	0	0	0	509	512	
10	0	0	0	0	509	511	
11	0	0	0	0	510	511	
12	0	0	0	0	510	508	
13	0	0	0	0	509	510	
14	0	0	0	0	511	511	
15	0	0	0	0	512	512	
0	0	0	0	0	513	510	
1	0	0	0	0	511	509	
2	0	0	0	0	511	508	
3	0	0	0	0	513	508	
4	0	0	0	0	511	510	
5	0	0	0	0	511	509	
6	0	0	0	0	510	508	
7	0	0	0	0	512	511	
8	0	0	0	0	511	512	
9	0	0	0	0	508	510	
10	0	0	0	0	511	512	
11	0	0	0	0	511	512	
12	0	0	0	0	512	510	
13	0	0	0	0	511	510	
14	0	0	0	0	510	509	
15	0	0	0	0	512	508	
0	0	0	0	0	510	510	
1	0	0	0	0	510	509	
2	0	0	0	0	511	510	
3	0	0	0	0	510	513	
4	0	0	0	0	510	512	
5	0	0	0	0	510	510	
6	0	0	0	0	511	510	
7	0	0	0	0	510	511	
8	0	0	0	0	510	510	
9	0	0	0	0	512	511	
10	0	0	0	0	510	511	
11	0	0	0	0	510	510	
12	0	0	0	0	511	510	
13	0	0	0	0	511	507	
14	0	0	0	0	510	508	
15	0	0	0	0	509	512	
0	0	0	0	0	511	514	
1	0	0	0	0	512	511	
2	0	0	0	0	512	511	
3	0	0	0	0	515	509	
4	0	0	0	0	513	508	
5	0	0	0	0	510	511	
6	0	0	0	0	510	511	
7	0	0	0	0	509	512	
8	0	0	0	0	510	510	
9	0	0	0	0	511	511	
10	0	0	0	0	509	509	
11	0	0	0	0	514	510	
12	0	0	0	0	511	510	
13	0	0	0	0	511	510	
14	0	0	0	0	507	512	
15	0	0	0	0	508	512	
0	0	0	0	0	505	512	
1	0	0	0	0	505	510	
2	0	0	0	0	510	513	
3	0	0	0	0	512	509	
4	0	0	0	0	514	509	
5	0	0	0	0	513	510	
6	0	0	0	0	515	512	
7	0	0	0	0	508	512	
8	0	0	0	0	507	515	
9	0	0	0	0	508	512	
10	0	0	0	0	508	510	
11	0	0	0	0	511	510	
12	0	0	0	0	513	509	
13	0	0	0	0	512	510	
14	0	0	0	0	513	512	
15	0	0	0	0	512	512	
0	0	0	0	0	511	511	
1	0	0	0	0	512	511	
2	0	0	0	0	513	511	
3	0	0	0	0	516	510	
4	0	0	0	0	519	509	
5	0	0	0	0	514	510	
6	0	0	0	0	513	510	
7	0	0	0	0	513	511	
8	0	0	0	0	511	513	
9	0	0	0	0	509	510	
10	0	0	0	0	504	514	
11	0	0	0	0	506	512	
12	0	0	0	0	504	511	
13	0	0	0	0	504	509	
14	0	0	0	0	502	511	
15	0	0	0	0	508	509	
0	0	0	0	0	509	510	
1	0	0	0	0	508	511	
2	0	0	0	0	511	513	
3	0	0	0	0	513	508	
4	0	0	0	0	513	508	
5	0	0	0	0	511	505	
6	0	0	0	0	511	506	
7	0	0	0	0	509	505	
8	0	0	0	0	509	504	
9	0	0	0	0	509	503	
10	0	0	0	0	512	504	
11	0	0	0	0	512	508	
12	0	0	0	0	511	511	
13	0	0	0	0	514	510	
14	0	0	0	0	514	508	
15	0	0	0	0	514	505	
0	0	0	0	0	511	507	
1	0	0	0	0	514	507	
2	0	0	0	0	512	508	
3	0	0	0	0	512	508	
4	0	0	0	0	515	508	
5	0	0	0	0	517	509	
6	0	0	0	0	516	510	
7	0	0	0	0	517	517	
8	0	0	0	0	513	525	
9	0	0	0	0	511	528	
10	0	0	0	0	511	519	
11	0	0	0	0	508	514	
12	0	0	0	0	505	504	
13	0	0	0	0	506	498	
14	0	0	0	0	508	501	
15	0	0	0	0	509	504	
0	0	0	0	0	511	497	
1	0	0	0	0	510	507	
2	0	0	0	0	512	511	
3	0	0	0	0	511	512	
4	0	0	0	0	510	511	
5	0	0	0	0	510	515	
6	0	0	0	0	509	518	
7	0	0	0	0	508	517	
8	0	0	0	0	510	512	
9	0	0	0	0	510	510	
10	0	0	0	0	509	508	
11	0	0	0	0	508	512	
12	0	0	0	0	509	513	
13	0	0	0	0	513	511	
14	0	0	0	0	512	511	
15	0	0	0	0	511	511	
0	0	0	0	0	512	508	
1	0	0	0	0	511	509	
2	0	0	0	0	510	513	
3	0	0	0	0	508	518	
4	0	0	0	0	511	517	
5	0	0	0	0	510	515	
6	0	0	0	0	512	510	
7	0	0	0	0	512	509	
8	0	0	0	0	510	509	
9	0	0	0	0	510	503	
10	0	0	0	0	510	501	
11	0	0	0	0	511	502	
12	0	0	0	0	514	506	
13	0	0	0	0	512	513	
14	0	0	0	0	513	512	
15	0	0	0	0	511	509	
0	0	0	0	0	510	510	
1	0	0	0	0	511	514	
2	0	0	0	0	509	512	
3	0	0	0	0	509	509	
4	0	0	0	0	509	511	
5	0	0	0	0	512	512	
6	0	0	0	0	515	513	
7	0	0	0	0	510	514	
8	0	0	0	0	511	510	
9	0	0	0	0	509	507	
10	0	0	0	0	508	508	
11	0	0	0	0	510	506	
12	0	0	0	0	510	507	
13	0	0	0	0	510	515	
14	0	0	0	0	508	517	
15	0	0	0	0	508	518	
0	0	0	0	0	513	512	
1	0	0	0	0	514	513	
2	0	0	0	0	512	512	
3	0	0	0	0	514	508	
4	0	0	0	0	510	507	
5	0	0	0	0	515	501	
6	0	0	0	0	512	504	
7	0	0	0	0	511	505	
8	0	0	0	0	512	511	
9	0	0	0	0	510	512	
10	0	0	0	0	512	511	
11	0	0	0	0	514	511	
12	0	0	0	0	511	511	
13	0	0	0	0	511	513	
14	0	0	0	0	511	513	
15	0	0	0	0	510	511	
0	0	0	0	0	508	509	
1	0	0	0	0	509	511	
2	0	0	0	0	511	511	
3	0	0	0	0	510	512	
4	0	0	0	0	510	510	
5	0	0	0	0	511	510	
6	0	0	0	0	512	511	
7	0	0	0	0	510	511	
8	0	0	0	0	511	515	
9	0	0	0	0	512	509	
10	0	0	0	0	511	509	
11	0	0	0	0	511	511	
12	0	0	0	0	511	510	
13	0	0	0	0	511	510	
14	0	0	0	0	511	511	
15	0	0	0	0	508	510	
0	0	0	0	0	511	509	
1	0	0	0	0	507	510	
2	0	0	0	0	508	512	
3	0	0	0	0	510	509	
4	0	0	0	0	510	513	
5	0	0	0	0	512	510	
6	0	0	0	0	515	514	
7	0	0	0	0	516	507	
8	0	0	0	0	515	506	
9	0	0	0	0	511	506	
10	0	0	0	0	507	511	
11	0	0	0	0	507	512	
12	0	0	0	0	508	513	
13	0	0	0	0	511	512	
14	0	0	0	0	513	511	
15	0	0	0	0	510	509	
0	0	0	0	0	512	510	
1	0	0	0	0	511	509	
2	0	0	0	0	511	508	
3	0	0	0	0	509	507	
4	0	0	0	0	507	514	
5	0	0	0	0	508	518	
6	0	0	0	0	509	513	
7	0	0	0	0	506	518	
8	0	0	0	0	508	512	
9	0	0	0	0	511	504	
10	0	0	0	0	512	500	
11	0	0	0	0	513	500	
12	0	0	0	0	511	502	
13	0	0	0	0	511	503	
14	0	0	0	0	511	505	
15	0	0	0	0	511	515	
0	0	0	0	0	511	519	
1	0	0	0	0	511	516	
2	0	0	0	0	510	507	
3	0	0	0	0	510	510	
4	0	0	0	0	513	511	
5	0	0	0	0	513	510	
6	0	0	0	0	513	510	
7	0	0	0	0	517	508	
8	0	0	0	0	514	510	
9	0	0	0	0	511	510	
10	0	0	0	0	512	511	
11	0	0	0	0	512	508	
12	0	0	0	0	511	511	
13	0	0	0	0	510	512	
14	0	0	0	0	505	513	
15	0	0	0	0	503	515	
0	0	0	0	0	507	513	
1	0	0	0	0	508	513	
2	0	0	0	0	507	515	
3	0	0	0	0	508	519	
4	0	0	0	0	509	516	
5	0	0	0	0	510	508	
6	0	0	0	0	510	507	
7	0	0	0	0	511	504	
8	0	0	0	0	513	503	
9	0	0	0	0	512	506	
10	0	0	0	0	513	508	
11	0	0	0	0	512	510	
12	0	0	0	0	512	512	
13	0	0	0	0	512	508	
14	0	0	0	0	509	509	
15	0	0	0	0	510	514	
0	0	0	0	0	512	514	
1	0	0	0	0	513	513	
2	0	0	0	0	511	509	
3	0	0	0	0	513	504	
4	0	0	0	0	513	508	
5	0	0	0	0	511	516	
6	0	0	0	0	509	521	
7	0	0	0	0	511	521	
8	0	0	0	0	512	516	
9	0	0	0	0	511	513	
10	0	0	0	0	511	508	
11	0	0	0	0	512	502	
12	0	0	0	0	508	505	
13	0	0	0	0	511	507	
14	0	0	0	0	510	504	
15	0	0	0	0	509	512	
0	0	0	0	0	506	512	
1	0	0	0	0	512	508	
2	0	0	0	0	511	505	
3	0	0	0	0	508	507	
4	0	0	0	0	510	504	
5	0	0	0	0	512	506	
6	0	0	0	0	512	511	
7	0	0	0	0	514	512	
8	0	0	0	0	512	511	
9	0	0	0	0	511	512	
10	0	0	0	0	507	511	
11	0	0	0	0	508	511	
12	0	0	0	0	508	510	
13	0	0	0	0	509	510	
14	0	0	0	0	508	509	
15	0	0	0	0	511	512	
0	0	0	0	0	511	515	
1	0	0	0	0	511	512	
2	0	0	0	0	512	517	
3	0	0	0	0	510	519	
4	0	0	0	0	512	518	
5	0	0	0	0	512	515	
6	0	0	0	0	511	511	
7	0	0	0	0	511	507	
8	0	0	0	0	512	500	
9	0	0	0	0	511	499	
10	0	0	0	0	511	502	
11	0	0	0	0	512	508	
12	0	0	0	0	511	517	
13	0	0	0	0	510	525	
14	0	0	0	0	511	524	
15	0	0	0	0	511	520	
0	0	0	0	0	510	511	
1	0	0	0	0	511	507	
2	0	0	0	0	511	502	
3	0	0	0	0	513	494	
4	0	0	0	0	510	493	
5	0	0	0	0	513	492	
6	0	0	0	0	515	495	
7	0	0	0	0	514	504	
8	0	0	0	0	510	511	
9	0	0	0	0	508	517	
10	0	0	0	0	508	518	
11	0	0	0	0	505	519	
12	0	0	0	0	501	519	
13	0	0	0	0	503	516	
14	0	0	0	0	507	512	
15	0	0	0	0	509	510	
0	0	0	0	0	509	510	
1	0	0	0	0	510	507	
2	0	0	0	0	512	513	
3	0	0	0	0	513	515	
4	0	0	0	0	511	512	
5	0	0	0	0	512	508	
6	0	0	0	0	511	504	
7	0	0	0	0	512	501	
8	0	0	0	0	512	512	
9	0	0	0	0	512	519	
10	0	0	0	0	512	520	
11	0	0	0	0	513	520	
12	0	0	0	0	514	519	
13	0	0	0	0	514	518	
14	0	0	0	0	511	514	
15	0	0	0	0	508	511	
0	0	0	0	0	512	505	
1	0	0	0	0	513	503	
2	0	0	0	0	512	501	
3	0	0	0	0	511	504	
4	0	0	0	0	512	505	
5	0	0	0	0	514	509	
6	0	0	0	0	514	507	
7	0	0	0	0	514	510	
8	0	0	0	0	512	508	
9	0	0	0	0	510	505	
10	0	0	0	0	506	508	
11	0	0	0	0	506	508	
12	0	0	0	0	505	512	
13	0	0	0	0	505	514	
14	0	0	0	0	502	515	
15	0	0	0	0	505	515	
0	0	0	0	0	508	515	
1	0	0	0	0	510	510	
2	0	0	0	0	513	508	
3	0	0	0	0	512	515	
4	0	0	0	0	511	521	
5	0	0	0	0	513	521	
6	0	0	0	0	514	515	
7	0	0	0	0	514	509	
8	0	0	0	0	512	503	
9	0	0	0	0	511	504	
10	0	0	0	0	511	504	
11	0	0	0	0	511	508	
12	0	0	0	0	511	511	
13	0	0	0	0	514	513	
14	0	0	0	0	512	516	
15	0	0	0	0	513	513	
0	0	0	0	0	515	510	
1	0	0	0	0	511	507	
2	0	0	0	0	511	505	
3	0	0	0	0	511	510	
4	0	0	0	0	509	503	
5	0	0	0	0	508	502	
6	0	0	0	0	504	504	
7	0	0	0	0	507	508	
8	0	0	0	0	509	514	
9	0	0	0	0	511	513	
10	0	0	0	0	512	516	
11	0	0	0	0	511	513	
12	0	0	0	0	511	513	
13	0	0	0	0	510	518	
14	0	0	0	0	513	521	
15	0	0	0	0	519	518	
0	0	0	0	0	514	513	
1	0	0	0	0	512	504	
2	0	0	0	0	509	500	
3	0	0	0	0	510	505	
4	0	0	0	0	510	507	
5	0	0	0	0	508	511	
6	0	0	0	0	508	511	
7	0	0	0	0	509	510	
8	0	0	0	0	509	510	
9	0	0	0	0	509	508	
10	0	0	0	0	511	506	
11	0	0	0	0	510	511	
12	0	0	0	0	508	512	
13	0	0	0	0	513	511	
14	0	0	0	0	519	510	
15	0	0	0	0	515	510	
0	0	0	0	0	511	511	
1	0	0	0	0	505	514	
2	0	0	0	0	505	517	
3	0	0	0	0	508	519	
4	0	0	0	0	507	517	
5	0	0	0	0	507	515	
6	0	0	0	0	508	513	
7	0	0	0	0	511	508	
8	0	0	0	0	511	505	
9	0	0	0	0	511	501	
10	0	0	0	0	511	504	
11	0	0	0	0	510	505	
12	0	0	0	0	511	507	
13	0	0	0	0	516	509	
14	0	0	0	0	518	507	
15	0	0	0	0	518	511	
0	0	0	0	0	515	512	
1	0	0	0	0	514	511	
2	0	0	0	0	509	512	
3	0	0	0	0	508	519	
4	0	0	0	0	509	525	
5	0	0	0	0	508	521	
6	0	0	0	0	505	514	
7	0	0	0	0	504	504	
8	0	0	0	0	504	502	
9	0	0	0	0	508	500	
10	0	0	0	0	511	504	
11	0	0	0	0	513	507	
12	0	0	0	0	514	507	
13	0	0	0	0	514	510	
14	0	0	0	0	513	505	
15	0	0	0	0	515	514	
0	0	0	0	0	514	517	
1	0	0	0	0	516	518	
2	0	0	0	0	513	516	
3	0	0	0	0	513	507	
4	0	0	0	0	513	500	
5	0	0	0	0	513	503	
6	0	0	0	0	510	506	
7	0	0	0	0	508	511	
8	0	0	0	0	509	512	
9	0	0	0	0	507	513	
10	0	0	0	0	508	513	
11	0	0	0	0	506	509	
12	0	0	0	0	506	507	
13	0	0	0	0	506	510	
14	0	0	0	0	503	519	
15	0	0	0	0	508	519	
0	0	0	0	0	512	519	
1	0	0	0	0	515	515	
2	0	0	0	0	516	512	
3	0	0	0	0	519	512	
4	0	0	0	0	516	511	
5	0	0	0	0	515	508	
6	0	0	0	0	510	507	
7	0	0	0	0	508	510	
8	0	0	0	0	505	514	
9	0	0	0	0	507	510	
10	0	0	0	0	508	504	
11	0	0	0	0	508	504	
12	0	0	0	0	508	507	
13	0	0	0	0	508	509	
14	0	0	0	0	511	513	
15	0	0	0	0	512	517	
0	0	0	0	0	511	513	
1	0	0	0	0	511	510	
2	0	0	0	0	512	509	
3	0	0	0	0	513	507	
4	0	0	0	0	512	508	
5	0	0	0	0	511	506	
6	0	0	0	0	508	509	
7	0	0	0	0	512	508	
8	0	0	0	0	512	510	
9	0	0	0	0	513	509	
10	0	0	0	0	511	507	
11	0	0	0	0	513	510	
12	0	0	0	0	511	509	
13	0	0	0	0	510	512	
14	0	0	0	0	511	512	
15	0	0	0	0	512	511	
0	0	0	0	0	509	511	
1	0	0	0	0	509	516	
2	0	0	0	0	512	519	
3	0	0	0	0	512	515	
4	0	0	0	0	511	505	
5	0	0	0	0	512	503	
6	0	0	0	0	508	504	
7	0	0	0	0	507	510	
8	0	0	0	0	508	514	
9	0	0	0	0	507	510	
10	0	0	0	0	510	510	
11	0	0	0	0	513	511	
12	0	0	0	0	511	509	
13	0	0	0	0	512	508	
14	0	0	0	0	511	510	
15	0	0	0	0	512	511	
0	0	0	0	0	510	510	
1	0	0	0	0	511	512	
2	0	0	0	0	512	511	
3	0	0	0	0	510	511	
4	0	0	0	0	513	513	
5	0	0	0	0	513	515	
6	0	0	0	0	512	516	
7	0	0	0	0	510	513	
8	0	0	0	0	510	512	
9	0	0	0	0	510	510	
10	0	0	0	0	510	504	
11	0	0	0	0	511	500	
12	0	0	0	0	510	500	
13	0	0	0	0	511	510	
14	0	0	0	0	512	517	
15	0	0	0	0	513	516	
0	0	0	0	0	509	511	
1	0	0	0	0	509	510	
2	0	0	0	0	512	508	
3	0	0	0	0	511	508	
4	0	0	0	0	511	510	
5	0	0	0	0	510	510	
6	0	0	0	0	508	513	
7	0	0	0	0	508	515	
8	0	0	0	0	506	510	
9	0	0	0	0	506	508	
10	0	0	0	0	509	507	
11	0	0	0	0	508	502	
12	0	0	0	0	511	504	
13	0	0	0	0	512	509	
14	0	0	0	0	515	510	
15	0	0	0	0	511	509	
0	0	0	0	0	512	509	
1	0	0	0	0	512	510	
2	0	0	0	0	510	511	
3	0	0	0	0	511	510	
4	0	0	0	0	510	512	
5	0	0	0	0	507	512	
6	0	0	0	0	508	513	
7	0	0	0	0	509	515	
8	0	0	0	0	512	515	
9	0	0	0	0	514	512	
10	0	0	0	0	513	512	
11	0	0	0	0	512	513	
12	0	0	0	0	510	513	
13	0	0	0	0	513	510	
14	0	0	0	0	514	511	
15	0	0	0	0	513	513	
0	0	0	0	0	512	510	
1	0	0	0	0	512	511	
2	0	0	0	0	510	511	
3	0	0	0	0	511	510	
4	0	0	0	0	509	509	
5	0	0	0	0	507	515	
6	0	0	0	0	508	515	
7	0	0	0	0	511	516	
8	0	0	0	0	513	507	
9	0	0	0	0	512	501	
10	0	0	0	0	512	497	
11	0	0	0	0	512	499	
12	0	0	0	0	509	506	
13	0	0	0	0	506	508	
14	0	0	0	0	508	514	
15	0	0	0	0	511	517	
0	0	0	0	0	513	518	
1	0	0	0	0	515	512	
2	0	0	0	0	511	509	
3	0	0	0	0	511	508	
4	0	0	0	0	510	508	
5	0	0	0	0	511	506	
6	0	0	0	0	510	505	
7	0	0	0	0	510	504	
8	0	0	0	0	510	508	
9	0	0	0	0	509	512	
10	0	0	0	0	507	512	
11	0	0	0	0	511	517	
12	0	0	0	0	510	515	
13	0	0	0	0	511	515	
14	0	0	0	0	511	510	
15	0	0	0	0	513	510	
0	0	0	0	0	511	513	
1	0	0	0	0	508	514	
2	0	0	0	0	508	515	
3	0	0	0	0	509	512	
4	0	0	0	0	510	513	
5	0	0	0	0	508	515	
6	0	0	0	0	509	513	
7	0	0	0	0	511	512	
8	0	0	0	0	512	511	
9	0	0	0	0	511	508	
10	0	0	0	0	512	510	
11	0	0	0	0	511	509	
12	0	0	0	0	513	511	
13	0	0	0	0	514	509	
14	0	0	0	0	512	508	
15	0	0	0	0	512	506	
0	0	0	0	0	511	507	
1	0	0	0	0	510	507	
2	0	0	0	0	510	510	
3	0	0	0	0	512	512	
4	0	0	0	0	516	511	
5	0	0	0	0	513	511	
6	0	0	0	0	513	510	
7	0	0	0	0	513	512	
8	0	0	0	0	510	509	
9	0	0	0	0	508	511	
10	0	0	0	0	506	512	
11	0	0	0	0	504	511	
12	0	0	0	0	501	512	
13	0	0	0	0	502	513	
14	0	0	0	0	507	509	
15	0	0	0	0	512	508	
0	0	0	0	0	512	510	
1	0	0	0	0	512	507	
2	0	0	0	0	515	507	
3	0	0	0	0	513	509	
4	0	0	0	0	511	510	
5	0	0	0	0	513	512	
6	0	0	0	0	510	509	
7	0	0	0	0	511	511	
8	0	0	0	0	514	512	
9	0	0	0	0	513	510	
10	0	0	0	0	513	509	
11	0	0	0	0	510	507	
12	0	0	0	0	511	507	
13	0	0	0	0	510	510	
14	0	0	0	0	509	511	
15	0	0	0	0	511	512	
0	0	0	0	0	512	514	
1	0	0	0	0	512	511	
2	0	0	0	0	513	511	
3	0	0	0	0	515	511	
4	0	0	0	0	513	513	
5	0	0	0	0	510	512	
6	0	0	0	0	512	511	
7	0	0	0	0	511	512	
8	0	0	0	0	510	510	
9	0	0	0	0	507	511	
10	0	0	0	0	505	509	
11	0	0	0	0	511	506	
12	0	0	0	0	511	508	
13	0	0	0	0	511	512	
14	0	0	0	0	510	510	
15	0	0	0	0	512	512	
0	0	0	0	0	511	512	
1	0	0	0	0	511	509	
2	0	0	0	0	510	509	
3	0	0	0	0	506	508	
4	0	0	0	0	512	507	
5	0	0	0	0	511	513	
6	0	0	0	0	513	515	
7	0	0	0	0	512	514	
8	0	0	0	0	512	512	
9	0	0	0	0	512	511	
10	0	0	0	0	512	509	
11	0	0	0	0	513	509	
12	0	0	0	0	511	508	
13	0	0	0	0	511	509	
14	0	0	0	0	511	510	
15	0	0	0	0	510	512	
0	0	0	0	0	512	511	
1	0	0	0	0	511	511	
2	0	0	0	0	511	512	
3	0	0	0	0	511	512	
4	0	0	0	0	510	512	
5	0	0	0	0	512	510	
6	0	0	0	0	508	510	
7	0	0	0	0	510	508	
8	0	0	0	0	512	508	
9	0	0	0	0	510	510	
10	0	0	0	0	510	512	
11	0	0	0	0	511	511	
12	0	0	0	0	512	510	
13	0	0	0	0	510	512	
14	0	0	0	0	511	511	
15	0	0	0	0	511	514	
0	0	0	0	0	511	516	
1	0	0	0	0	510	515	
2	0	0	0	0	508	511	
3	0	0	0	0	512	511	
4	0	0	0	0	512	509	
5	0	0	0	0	512	506	
6	0	0	0	0	511	509	
7	0	0	0	0	508	511	
8	0	0	0	0	511	505	
9	0	0	0	0	508	508	
10	0	0	0	0	507	509	
11	0	0	0	0	509	506	
12	0	0	0	0	510	510	
13	0	0	0	0	510	515	
14	0	0	0	0	508	514	
15	0	0	0	0	510	515	
0	0	0	0	0	512	512	
1	0	0	0	0	512	507	
2	0	0	0	0	513	501	
3	0	0	0	0	512	503	
4	0	0	0	0	513	512	
5	0	0	0	0	513	524	
6	0	0	0	0	515	526	
7	0	0	0	0	518	525	
8	0	0	0	0	518	513	
9	0	0	0	0	515	504	
10	0	0	0	0	511	499	
11	0	0	0	0	507	503	
12	0	0	0	0	508	508	
13	0	0	0	0	504	508	
14	0	0	0	0	504	508	
15	0	0	0	0	502	508	
0	0	0	0	0	504	509	
1	0	0	0	0	504	513	
2	0	0	0	0	504	511	
3	0	0	0	0	511	509	
4	0	0	0	0	512	508	
5	0	0	0	0	513	508	
6	0	0	0	0	518	514	
7	0	0	0	0	515	514	
8	0	0	0	0	516	511	
9	0	0	0	0	514	516	
10	0	0	0	0	513	524	
11	0	0	0	0	514	523	
12	0	0	0	0	512	518	
13	0	0	0	0	511	510	
14	0	0	0	0	508	509	
15	0	0	0	0	507	509	
0	0	0	0	0	508	506	
1	0	0	0	0	506	503	
2	0	0	0	0	506	508	
3	0	0	0	0	504	510	
4	0	0	0	0	505	510	
5	0	0	0	0	505	507	
6	0	0	0	0	507	508	
7	0	0	0	0	508	504	
8	0	0	0	0	512	503	
9	0	0	0	0	511	503	
10	0	0	0	0	514	504	
11	0	0	0	0	511	508	
12	0	0	0	0	513	507	
13	0	0	0	0	515	508	
14	0	0	0	0	515	509	
15	0	0	0	0	515	509	
0	0	0	0	0	515	508	
1	0	0	0	0	514	507	
2	0	0	0	0	514	508	
3	0	0	0	0	514	509	
4	0	0	0	0	511	511	
5	0	0	0	0	510	511	
6	0	0	0	0	512	514	
7	0	0	0	0	512	515	
8	0	0	0	0	511	515	
9	0	0	0	0	512	515	
10	0	0	0	0	511	515	
11	0	0	0	0	512	515	
12	0	0	0	0	511	515	
13	0	0	0	0	512	514	
14	0	0	0	0	514	513	
15	0	0	0	0	512	508	
0	0	0	0	0	511	508	
1	0	0	0	0	508	508	
2	0	0	0	0	509	511	
3	0	0	0	0	509	514	
4	0	0	0	0	508	513	
5	0	0	0	0	508	515	
6	0	0	0	0	507	512	
7	0	0	0	0	508	510	
8	0	0	0	0	511	510	
9	0	0	0	0	510	514	
10	0	0	0	0	510	513	
11	0	0	0	0	510	511	
12	0	0	0	0	509	511	
13	0	0	0	0	512	510	
14	0	0	0	0	511	510	
15	0	0	0	0	511	508	
0	0	0	0	0	510	510	
1	0	0	0	0	509	511	
2	0	0	0	0	510	512	
3	0	0	0	0	510	510	
4	0	0	0	0	509	507	
5	0	0	0	0	512	506	
6	0	0	0	0	513	508	
7	0	0	0	0	513	509	
8	0	0	0	0	512	508	
9	0	0	0	0	512	510	
10	0	0	0	0	511	508	
11	0	0	0	0	512	508	
12	0	0	0	0	509	509	
13	0	0	0	0	512	508	
14	0	0	0	0	510	509	
15	0	0	0	0	511	512	
0	0	0	0	0	511	509	
1	0	0	0	0	510	510	
2	0	0	0	0	510	510	
3	0	0	0	0	510	514	
4	0	0	0	0	508	515	
5	0	0	0	0	509	514	
6	0	0	0	0	513	513	
7	0	0	0	0	512	510	
8	0	0	0	0	512	516	
9	0	0	0	0	511	518	
10	0	0	0	0	510	518	
11	0	0	0	0	510	520	
12	0	0	0	0	511	514	
13	0	0	0	0	511	504	
14	0	0	0	0	513	494	
15	0	0	0	0	510	492	
0	0	0	0	0	509	494	
1	0	0	0	0	512	496	
2	0	0	0	0	511	501	
3	0	0	0	0	512	507	
4	0	0	0	0	509	502	
5	0	0	0	0	509	505	
6	0	0	0	0	510	513	
7	0	0	0	0	510	513	
8	0	0	0	0	511	514	
9	0	0	0	0	509	519	
10	0	0	0	0	509	520	
11	0	0	0	0	509	514	
12	0	0	0	0	512	511	
13	0	0	0	0	511	511	
14	0	0	0	0	513	510	
15	0	0	0	0	515	510	
0	0	0	0	0	512	508	
1	0	0	0	0	513	507	
2	0	0	0	0	511	508	
3	0	0	0	0	509	506	
4	0	0	0	0	509	510	
5	0	0	0	0	510	510	
6	0	0	0	0	512	519	
7	0	0	0	0	514	527	
8	0	0	0	0	514	526	
9	0	0	0	0	515	518	
10	0	0	0	0	515	512	
11	0	0	0	0	510	510	
12	0	0	0	0	507	511	
13	0	0	0	0	505	511	
14	0	0	0	0	502	509	
15	0	0	0	0	503	507	
0	0	0	0	0	503	509	
1	0	0	0	0	504	509	
2	0	0	0	0	504	506	
3	0	0	0	0	510	504	
4	0	0	0	0	514	506	
5	0	0	0	0	514	510	
6	0	0	0	0	515	507	
7	0	0	0	0	514	511	
8	0	0	0	0	516	514	
9	0	0	0	0	514	511	
10	0	0	0	0	511	510	
11	0	0	0	0	512	513	
12	0	0	0	0	512	511	
13	0	0	0	0	509	511	
14	0	0	0	0	511	510	
15	0	0	0	0	512	512	
0	0	0	0	0	511	511	
1	0	0	0	0	511	508	
2	0	0	0	0	510	508	
3	0	0	0	0	509	507	
4	0	0	0	0	511	505	
5	0	0	0	0	511	508	
6	0	0	0	0	512	509	
7	0	0	0	0	511	513	
8	0	0	0	0	512	517	
9	0	0	0	0	513	518	
10	0	0	0	0	513	512	
11	0	0	0	0	510	507	
12	0	0	0	0	510	509	
13	0	0	0	0	508	508	
14	0	0	0	0	510	508	
15	0	0	0	0	510	511	
0	0	0	0	0	510	509	
1	0	0	0	0	511	510	
2	0	0	0	0	512	509	
3	0	0	0	0	513	508	
4	0	0	0	0	512	512	
5	0	0	0	0	511	513	
6	0	0	0	0	512	512	
7	0	0	0	0	511	512	
8	0	0	0	0	511	510	
9	0	0	0	0	510	515	
10	0	0	0	0	509	512	
11	0	0	0	0	511	512	
12	0	0	0	0	511	509	
13	0	0	0	0	508	508	
14	0	0	0	0	509	513	
15	0	0	0	0	508	510	
0	0	0	0	0	512	508	
1	0	0	0	0	511	510	
2	0	0	0	0	511	512	
3	0	0	0	0	508	508	
4	0	0	0	0	509	507	
5	0	0	0	0	510	505	
6	0	0	0	0	510	500	
7	0	0	0	0	511	506	
8	0	0	0	0	514	512	
9	0	0	0	0	516	512	
10	0	0	0	0	515	510	
11	0	0	0	0	514	515	
12	0	0	0	0	511	516	
13	0	0	0	0	511	512	
14	0	0	0	0	508	507	
15	0	0	0	0	509	503	
0	0	0	0	0	507	508	
1	0	0	0	0	507	510	
2	0	0	0	0	508	512	
3	0	0	0	0	506	511	
4	0	0	0	0	509	511	
5	0	0	0	0	509	510	
6	0	0	0	0	510	508	
7	0	0	0	0	511	511	
8	0	0	0	0	513	506	
9	0	0	0	0	512	510	
10	0	0	0	0	511	509	
11	0	0	0	0	511	509	
12	0	0	0	0	511	509	
13	0	0	0	0	511	516	
14	0	0	0	0	512	523	
15	0	0	0	0	511	522	
0	0	0	0	0	513	514	
1	0	0	0	0	514	513	
2	0	0	0	0	515	512	
3	0	0	0	0	512	509	
4	0	0	0	0	511	504	
5	0	0	0	0	510	511	
6	0	0	0	0	510	515	
7	0	0	0	0	510	515	
8	0	0	0	0	508	509	
9	0	0	0	0	511	505	
10	0	0	0	0	511	500	
11	0	0	0	0	508	508	
12	0	0	0	0	511	508	
13	0	0	0	0	511	504	
14	0	0	0	0	513	503	
15	0	0	0	0	514	505	
0	0	0	0	0	512	508	
1	0	0	0	0	512	513	
2	0	0	0	0	512	515	
3	0	0	0	0	509	512	
4	0	0	0	0	507	511	
5	0	0	0	0	507	520	
6	0	0	0	0	507	520	
7	0	0	0	0	505	514	
8	0	0	0	0	508	506	
9	0	0	0	0	511	506	
10	0	0	0	0	511	510	
11	0	0	0	0	511	507	
12	0	0	0	0	512	502	
13	0	0	0	0	512	504	
14	0	0	0	0	514	503	
15	0	0	0	0	515	507	
0	0	0	0	0	514	511	
1	0	0	0	0	514	512	
2	0	0	0	0	511	515	
3	0	0	0	0	510	514	
4	0	0	0	0	508	515	
5	0	0	0	0	507	512	
6	0	0	0	0	508	510	
7	0	0	0	0	506	508	
8	0	0	0	0	505	510	
9	0	0	0	0	504	510	
10	0	0	0	0	510	516	
11	0	0	0	0	512	524	
12	0	0	0	0	513	521	
13	0	0	0	0	513	518	
14	0	0	0	0	511	507	
15	0	0	0	0	511	500	
0	0	0	0	0	511	502	
1	0	0	0	0	510	507	
2	0	0	0	0	510	505	
3	0	0	0	0	513	509	
4	0	0	0	0	512	508	
5	0	0	0	0	511	505	
6	0	0	0	0	510	507	
7	0	0	0	0	513	515	
8	0	0	0	0	513	515	
9	0	0	0	0	512	515	
10	0	0	0	0	512	515	
11	0	0	0	0	511	513	
12	0	0	0	0	511	509	
13	0	0	0	0	512	507	
14	0	0	0	0	510	506	
15	0	0	0	0	510	506	
0	0	0	0	0	506	508	
1	0	0	0	0	510	509	
2	0	0	0	0	508	510	
3	0	0	0	0	510	514	
4	0	0	0	0	511	515	
5	0	0	0	0	515	512	
6	0	0	0	0	515	507	
7	0	0	0	0	515	505	
8	0	0	0	0	512	508	
9	0	0	0	0	511	518	
10	0	0	0	0	508	525	
11	0	0	0	0	509	517	
12	0	0	0	0	508	513	
13	0	0	0	0	507	509	
14	0	0	0	0	510	505	
15	0	0	0	0	512	500	
0	0	0	0	0	514	505	
1	0	0	0	0	513	509	
2	0	0	0	0	513	510	
3	0	0	0	0	511	513	
4	0	0	0	0	507	511	
5	0	0	0	0	508	512	
6	0	0	0	0	506	514	
7	0	0	0	0	505	510	
8	0	0	0	0	511	508	
9	0	0	0	0	512	504	
10	0	0	0	0	514	510	
11	0	0	0	0	514	513	
12	0	0	0	0	513	511	
13	0	0	0	0	512	508	
14	0	0	0	0	512	508	
15	0	0	0	0	510	506	
0	0	0	0	0	512	508	
1	0	0	0	0	511	506	
2	0	0	0	0	510	508	
3	0	0	0	0	511	514	
4	0	0	0	0	511	521	
5	0	0	0	0	513	524	
6	0	0	0	0	511	524	
7	0	0	0	0	509	516	
8	0	0	0	0	504	510	
9	0	0	0	0	504	511	
10	0	0	0	0	503	504	
11	0	0	0	0	508	500	
12	0	0	0	0	509	497	
13	0	0	0	0	510	504	
14	0	0	0	0	511	502	
15	0	0	0	0	509	506	
0	0	0	0	0	510	511	
1	0	0	0	0	511	515	
2	0	0	0	0	512	516	
3	0	0	0	0	512	513	
4	0	0	0	0	513	511	
5	0	0	0	0	511	513	
6	0	0	0	0	510	513	
7	0	0	0	0	510	511	
8	0	0	0	0	515	510	
9	0	0	0	0	515	507	
10	0	0	0	0	513	509	
11	0	0	0	0	513	510	
12	0	0	0	0	511	510	
13	0	0	0	0	509	514	
14	0	0	0	0	509	513	
15	0	0	0	0	508	511	
0	0	0	0	0	508	509	
1	0	0	0	0	511	512	
2	0	0	0	0	510	517	
3	0	0	0	0	511	519	
4	0	0	0	0	509	516	
5	0	0	0	0	511	516	
6	0	0	0	0	511	516	
7	0	0	0	0	512	508	
8	0	0	0	0	512	507	
9	0	0	0	0	512	506	
10	0	0	0	0	511	505	
11	0	0	0	0	512	507	
12	0	0	0	0	511	505	
13	0	0	0	0	512	505	
14	0	0	0	0	513	506	
15	0	0	0	0	511	512	
0	0	0	0	0	510	513	
1	0	0	0	0	511	507	
2	0	0	0	0	510	505	
3	0	0	0	0	511	505	
4	0	0	0	0	509	508	
5	0	0	0	0	509	511	
6	0	0	0	0	513	512	
7	0	0	0	0	511	512	
8	0	0	0	0	511	515	
9	0	0	0	0	511	516	
10	0	0	0	0	510	518	
11	0	0	0	0	512	515	
12	0	0	0	0	512	512	
13	0	0	0	0	510	516	
14	0	0	0	0	508	512	
15	0	0	0	0	508	509	
0	0	0	0	0	508	504	
1	0	0	0	0	509	508	
2	0	0	0	0	507	514	
3	0	0	0	0	508	512	
4	0	0	0	0	511	508	
5	0	0	0	0	514	503	
6	0	0	0	0	515	500	
7	0	0	0	0	513	504	
8	0	0	0	0	510	502	
9	0	0	0	0	512	502	
10	0	0	0	0	513	505	
11	0	0	0	0	515	512	
12	0	0	0	0	513	514	
13	0	0	0	0	512	519	
14	0	0	0	0	509	518	
15	0	0	0	0	508	514	
0	0	0	0	0	508	514	
1	0	0	0	0	509	513	
2	0	0	0	0	509	511	
3	0	0	0	0	508	512	
4	0	0	0	0	508	516	
5	0	0	0	0	512	513	
6	0	0	0	0	513	512	
7	0	0	0	0	513	512	
8	0	0	0	0	512	510	
9	0	0	0	0	512	507	
10	0	0	0	0	512	507	
11	0	0	0	0	512	505	
12	0	0	0	0	511	507	
13	0	0	0	0	512	511	
14	0	0	0	0	511	516	
15	0	0	0	0	511	515	
0	0	0	0	0	511	508	
1	0	0	0	0	511	505	
2	0	0	0	0	511	506	
3	0	0	0	0	511	510	
4	0	0	0	0	511	512	
5	0	0	0	0	510	515	
6	0	0	0	0	512	515	
7	0	0	0	0	512	514	
8	0	0	0	0	513	512	
9	0	0	0	0	513	508	
10	0	0	0	0	513	502	
11	0	0	0	0	512	504	
12	0	0	0	0	511	504	
13	0	0	0	0	511	503	
14	0	0	0	0	508	509	
15	0	0	0	0	505	508	
0	0	0	0	0	509	511	
1	0	0	0	0	508	512	
2	0	0	0	0	510	515	
3	0	0	0	0	512	522	
4	0	0	0	0	511	521	
5	0	0	0	0	511	514	
6	0	0	0	0	510	509	
7	0	0	0	0	511	502	
8	0	0	0	0	508	508	
9	0	0	0	0	508	506	
10	0	0	0	0	511	506	
11	0	0	0	0	511	512	
12	0	0	0	0	511	515	
13	0	0	0	0	510	510	
14	0	0	0	0	508	510	
15	0	0	0	0	506	515	
0	0	0	0	0	505	513	
1	0	0	0	0	507	511	
2	0	0	0	0	511	509	
3	0	0	0	0	516	508	
4	0	0	0	0	517	506	
5	0	0	0	0	513	507	
6	0	0	0	0	514	506	
7	0	0	0	0	513	508	
8	0	0	0	0	513	513	
9	0	0	0	0	509	512	
10	0	0	0	0	505	515	
11	0	0	0	0	507	516	
12	0	0	0	0	512	515	
13	0	0	0	0	513	513	
14	0	0	0	0	514	513	
15	0	0	0	0	513	509	
0	0	0	0	0	512	509	
1	0	0	0	0	511	505	
2	0	0	0	0	512	503	
3	0	0	0	0	508	507	
4	0	0	0	0	510	511	
5	0	0	0	0	512	511	
6	0	0	0	0	513	513	
7	0	0	0	0	514	511	
8	0	0	0	0	513	509	
9	0	0	0	0	509	509	
10	0	0	0	0	509	510	
11	0	0	0	0	512	510	
12	0	0	0	0	507	507	
13	0	0	0	0	505	508	
14	0	0	0	0	504	513	
15	0	0	0	0	508	515	
0	0	0	0	0	512	514	
1	0	0	0	0	512	513	
2	0	0	0	0	513	516	
3	0	0	0	0	513	517	
4	0	0	0	0	511	517	
5	0	0	0	0	513	512	
6	0	0	0	0	512	505	
7	0	0	0	0	510	506	
8	0	0	0	0	510	506	
9	0	0	0	0	511	502	
10	0	0	0	0	511	501	
11	0	0	0	0	511	503	
12	0	0	0	0	511	510	
13	0	0	0	0	510	512	
14	0	0	0	0	510	512	
15	0	0	0	0	510	515	
0	0	0	0	0	509	515	
1	0	0	0	0	509	515	
2	0	0	0	0	512	519	
3	0	0	0	0	509	518	
4	0	0	0	0	509	516	
5	0	0	0	0	512	515	
6	0	0	0	0	516	509	
7	0	0	0	0	515	502	
8	0	0	0	0	514	505	
9	0	0	0	0	512	500	
10	0	0	0	0	511	504	
11	0	0	0	0	512	504	
12	0	0	0	0	508	503	
13	0	0	0	0	508	507	
14	0	0	0	0	508	512	
15	0	0	0	0	505	509	
0	0	0	0	0	506	508	
1	0	0	0	0	507	509	
2	0	0	0	0	508	515	
3	0	0	0	0	511	517	
4	0	0	0	0	513	514	
5	0	0	0	0	513	510	
6	0	0	0	0	512	513	
7	0	0	0	0	513	513	
8	0	0	0	0	511	512	
9	0	0	0	0	513	511	
10	0	0	0	0	511	516	
11	0	0	0	0	510	516	
12	0	0	0	0	510	517	
13	0	0	0	0	510	513	
14	0	0	0	0	509	508	
15	0	0	0	0	510	504	
0	0	0	0	0	510	505	
1	0	0	0	0	511	509	
2	0	0	0	0	511	512	
3	0	0	0	0	511	513	
4	0	0	0	0	512	515	
5	0	0	0	0	513	508	
6	0	0	0	0	515	504	
7	0	0	0	0	515	503	
8	0	0	0	0	512	509	
9	0	0	0	0	513	512	
10	0	0	0	0	510	518	
11	0	0	0	0	509	518	
12	0	0	0	0	508	511	
13	0	0	0	0	502	505	
14	0	0	0	0	499	502	
15	0	0	0	0	501	507	
0	0	0	0	0	504	518	
1	0	0	0	0	506	520	
2	0	0	0	0	510	513	
3	0	0	0	0	511	506	
4	0	0	0	0	509	512	
5	0	0	0	0	509	517	
6	0	0	0	0	512	510	
7	0	0	0	0	510	505	
8	0	0	0	0	513	506	
9	0	0	0	0	513	508	
10	0	0	0	0	514	506	
11	0	0	0	0	516	507	
12	0	0	0	0	514	507	
13	0	0	0	0	515	508	
14	0	0	0	0	514	508	
15	0	0	0	0	510	508	
0	0	0	0	0	514	509	
1	0	0	0	0	512	513	
2	0	0	0	0	513	524	
3	0	0	0	0	511	542	
4	0	0	0	0	510	532	
5	0	0	0	0	511	518	
6	0	0	0	0	511	504	
7	0	0	0	0	510	488	
8	0	0	0	0	511	486	
9	0	0	0	0	514	492	
10	0	0	0	0	511	497	
11	0	0	0	0	510	501	
12	0	0	0	0	511	506	
13	0	0	0	0	510	507	
14	0	0	0	0	509	506	
15	0	0	0	0	510	513	
0	0	0	0	0	510	518	
1	0	0	0	0	510	520	
2	0	0	0	0	510	515	
3	0	0	0	0	508	512	
4	0	0	0	0	512	513	
5	0	0	0	0	512	515	
6	0	0	0	0	513	515	
7	0	0	0	0	511	513	
8	0	0	0	0	510	511	
9	0	0	0	0	508	510	
10	0	0	0	0	510	513	
11	0	0	0	0	511	511	
12	0	0	0	0	511	508	
13	0	0	0	0	512	504	
14	0	0	0	0	513	508	
15	0	0	0	0	511	511	
0	0	0	0	0	512	510	
1	0	0	0	0	511	511	
2	0	0	0	0	511	511	
3	0	0	0	0	510	510	
4	0	0	0	0	510	513	
5	0	0	0	0	507	514	
6	0	0	0	0	506	511	
7	0	0	0	0	514	508	
8	0	0	0	0	513	508	
9	0	0	0	0	513	506	
10	0	0	0	0	514	506	
11	0	0	0	0	512	506	
12	0	0	0	0	512	511	
13	0	0	0	0	515	513	
14	0	0	0	0	515	516	
15	0	0	0	0	511	515	
0	0	0	0	0	511	513	
1	0	0	0	0	509	513	
2	0	0	0	0	504	510	
3	0	0	0	0	502	509	
4	0	0	0	0	504	506	
5	0	0	0	0	505	508	
6	0	0	0	0	510	510	
7	0	0	0	0	512	512	
8	0	0	0	0	511	513	
9	0	0	0	0	512	520	
10	0	0	0	0	515	523	
11	0	0	0	0	516	512	
12	0	0	0	0	516	501	
13	0	0	0	0	514	496	
14	0	0	0	0	511	504	
15	0	0	0	0	509	509	
0	0	0	0	0	511	510	
1	0	0	0	0	508	512	
2	0	0	0	0	506	512	
3	0	0	0	0	507	512	
4	0	0	0	0	510	510	
5	0	0	0	0	512	508	
6	0	0	0	0	513	510	
7	0	0	0	0	513	511	
8	0	0	0	0	511	511	
9	0	0	0	0	508	510	
10	0	0	0	0	508	511	
11	0	0	0	0	509	512	
12	0	0	0	0	508	512	
13	0	0	0	0	510	516	
14	0	0	0	0	510	516	
15	0	0	0	0	511	507	
0	0	0	0	0	512	507	
1	0	0	0	0	510	509	
2	0	0	0	0	511	513	
3	0	0	0	0	511	513	
4	0	0	0	0	513	513	
5	0	0	0	0	509	516	
6	0	0	0	0	512	517	
7	0	0	0	0	513	518	
8	0	0	0	0	511	516	
9	0	0	0	0	507	513	
10	0	0	0	0	510	511	
11	0	0	0	0	511	505	
12	0	0	0	0	512	503	
13	0	0	0	0	510	496	
14	0	0	0	0	511	494	
15	0	0	0	0	508	505	
0	0	0	0	0	511	510	
1	0	0	0	0	512	510	
2	0	0	0	0	508	513	
3	0	0	0	0	514	517	
4	0	0	0	0	511	521	
5	0	0	0	0	510	515	
6	0	0	0	0	511	509	
7	0	0	0	0	512	503	
8	0	0	0	0	513	504	
9	0	0	0	0	511	511	
10	0	0	0	0	512	507	
11	0	0	0	0	513	500	
12	0	0	0	0	510	504	
13	0	0	0	0	510	506	
14	0	0	0	0	508	510	
15	0	0	0	0	507	512	
0	0	0	0	0	508	514	
1	0	0	0	0	508	514	
2	0	0	0	0	509	511	
3	0	0	0	0	512	503	
4	0	0	0	0	514	502	
5	0	0	0	0	513	502	
6	0	0	0	0	512	507	
7	0	0	0	0	511	508	
8	0	0	0	0	513	512	
9	0	0	0	0	511	517	
10	0	0	0	0	511	515	
11	0	0	0	0	509	511	
12	0	0	0	0	510	511	
13	0	0	0	0	511	511	
14	0	0	0	0	510	513	
15	0	0	0	0	511	514	
0	0	0	0	0	513	513	
1	0	0	0	0	512	513	
2	0	0	0	0	511	517	
3	0	0	0	0	510	518	
4	0	0	0	0	511	519	
5	0	0	0	0	511	516	
6	0	0	0	0	509	513	
7	0	0	0	0	510	502	
8	0	0	0	0	512	500	
9	0	0	0	0	511	502	
10	0	0	0	0	508	503	
11	0	0	0	0	510	506	
12	0	0	0	0	510	508	
13	0	0	0	0	510	513	
14	0	0	0	0	509	515	
15	0	0	0	0	508	516	
0	0	0	0	0	507	514	
1	0	0	0	0	508	511	
2	0	0	0	0	510	509	
3	0	0	0	0	511	512	
4	0	0	0	0	511	513	
5	0	0	0	0	511	515	
6	0	0	0	0	511	517	
7	0	0	0	0	511	511	
8	0	0	0	0	511	509	
9	0	0	0	0	511	509	
10	0	0	0	0	511	509	
11	0	0	0	0	514	511	
12	0	0	0	0	511	513	
13	0	0	0	0	510	512	
14	0	0	0	0	511	513	
15	0	0	0	0	512	511	
0	0	0	0	0	512	509	
1	0	0	0	0	511	510	
2	0	0	0	0	513	508	
3	0	0	0	0	513	503	
4	0	0	0	0	511	501	
5	0	0	0	0	508	507	
6	0	0	0	0	508	512	
7	0	0	0	0	508	513	
8	0	0	0	0	510	513	
9	0	0	0	0	508	509	
10	0	0	0	0	508	508	
11	0	0	0	0	510	509	
12	0	0	0	0	510	506	
13	0	0	0	0	510	503	
14	0	0	0	0	512	507	
15	0	0	0	0	511	518	
0	0	0	0	0	511	516	
1	0	0	0	0	512	515	
2	0	0	0	0	512	513	
3	0	0	0	0	512	511	
4	0	0	0	0	511	509	
5	0	0	0	0	512	511	
6	0	0	0	0	510	512	
7	0	0	0	0	510	512	
8	0	0	0	0	510	516	
9	0	0	0	0	510	516	
10	0	0	0	0	505	510	
11	0	0	0	0	511	511	
12	0	0	0	0	511	512	
13	0	0	0	0	513	512	
14	0	0	0	0	514	508	
15	0	0	0	0	516	504	
0	0	0	0	0	514	504	
1	0	0	0	0	511	505	
2	0	0	0	0	511	502	
3	0	0	0	0	513	508	
4	0	0	0	0	510	511	
5	0	0	0	0	509	514	
6	0	0	0	0	506	516	
7	0	0	0	0	504	515	
8	0	0	0	0	503	509	
9	0	0	0	0	506	511	
10	0	0	0	0	508	511	
11	0	0	0	0	509	512	
12	0	0	0	0	506	512	
13	0	0	0	0	510	509	
14	0	0	0	0	513	507	
15	0	0	0	0	510	511	
0	0	0	0	0	515	513	
1	0	0	0	0	517	515	
2	0	0	0	0	517	509	
3	0	0	0	0	512	509	
4	0	0	0	0	510	506	
5	0	0	0	0	510	508	
6	0	0	0	0	508	510	
7	0	0	0	0	509	509	
8	0	0	0	0	507	510	
9	0	0	0	0	511	512	
10	0	0	0	0	513	512	
11	0	0	0	0	512	511	
12	0	0	0	0	511	514	
13	0	0	0	0	512	511	
14	0	0	0	0	513	511	
15	0	0	0	0	513	511	
0	0	0	0	0	513	509	
1	0	0	0	0	512	510	
2	0	0	0	0	512	509	
3	0	0	0	0	511	512	
4	0	0	0	0	509	510	
5	0	0	0	0	508	509	
6	0	0	0	0	508	508	
7	0	0	0	0	511	511	
8	0	0	0	0	513	510	
9	0	0	0	0	508	511	
10	0	0	0	0	509	509	
11	0	0	0	0	510	511	
12	0	0	0	0	511	511	
13	0	0	0	0	511	509	
14	0	0	0	0	508	510	
15	0	0	0	0	511	512	
0	0	0	0	0	510	513	
1	0	0	0	0	508	510	
2	0	0	0	0	511	511	
3	0	0	0	0	513	510	
4	0	0	0	0	512	508	
5	0	0	0	0	509	511	
6	0	0	0	0	511	508	
7	0	0	0	0	512	511	
8	0	0	0	0	509	512	
9	0	0	0	0	507	512	
10	0	0	0	0	513	511	
11	0	0	0	0	512	507	
12	0	0	0	0	512	508	
13	0	0	0	0	508	510	
14	0	0	0	0	509	512	
15	0	0	0	0	510	508	
0	0	0	0	0	511	508	
1	0	0	0	0	510	511	
2	0	0	0	0	509	512	
3	0	0	0	0	510	510	
4	0	0	0	0	513	511	
5	0	0	0	0	511	508	
6	0	0	0	0	511	509	
7	0	0	0	0	512	511	
8	0	0	0	0	511	514	
9	0	0	0	0	513	510	
10	0	0	0	0	513	504	
11	0	0	0	0	511	506	
12	0	0	0	0	511	510	
13	0	0	0	0	511	511	
14	0	0	0	0	513	515	
15	0	0	0	0	512	512	
0	0	0	0	0	512	512	
1	0	0	0	0	509	507	
2	0	0	0	0	510	508	
3	0	0	0	0	511	510	
4	0	0	0	0	510	512	
5	0	0	0	0	511	515	
6	0	0	0	0	509	513	
7	0	0	0	0	509	512	
8	0	0	0	0	510	512	
9	0	0	0	0	512	515	
10	0	0	0	0	510	515	
11	0	0	0	0	511	511	
12	0	0	0	0	511	509	
13	0	0	0	0	510	505	
14	0	0	0	0	510	504	
15	0	0	0	0	512	510	
0	0	0	0	0	511	515	
1	0	0	0	0	510	521	
2	0	0	0	0	509	525	
3	0	0	0	0	508	516	
4	0	0	0	0	509	505	
5	0	0	0	0	510	504	
6	0	0	0	0	510	514	
7	0	0	0	0	511	514	
8	0	0	0	0	512	507	
9	0	0	0	0	510	503	
10	0	0	0	0	511	500	
11	0	0	0	0	511	496	
12	0	0	0	0	511	499	
13	0	0	0	0	510	503	
14	0	0	0	0	511	508	
15	0	0	0	0	510	515	
0	0	0	0	0	512	513	
1	0	0	0	0	511	520	
2	0	0	0	0	509	522	
3	0	0	0	0	511	515	
4	0	0	0	0	511	508	
5	0	0	0	0	510	501	
6	0	0	0	0	512	503	
7	0	0	0	0	511	514	
8	0	0	0	0	509	514	
9	0	0	0	0	510	510	
10	0	0	0	0	511	510	
11	0	0	0	0	510	506	
12	0	0	0	0	510	505	
13	0	0	0	0	513	503	
14	0	0	0	0	511	509	
15	0	0	0	0	512	515	
0	0	0	0	0	511	521	
1	0	0	0	0	510	521	
2	0	0	0	0	511	518	
3	0	0	0	0	511	515	
4	0	0	0	0	512	515	
5	0	0	0	0	511	512	
6	0	0	0	0	511	509	
7	0	0	0	0	510	506	
8	0	0	0	0	510	510	
9	0	0	0	0	509	510	
10	0	0	0	0	508	514	
11	0	0	0	0	509	512	
12	0	0	0	0	510	515	
13	0	0	0	0	509	515	
14	0	0	0	0	510	511	
15	0	0	0	0	512	504	
0	0	0	0	0	512	498	
1	0	0	0	0	512	500	
2	0	0	0	0	510	504	
3	0	0	0	0	512	508	
4	0	0	0	0	511	511	
5	0	0	0	0	511	510	
6	0	0	0	0	512	505	
7	0	0	0	0	511	503	
8	0	0	0	0	511	504	
9	0	0	0	0	511	512	
10	0	0	0	0	511	518	
11	0	0	0	0	510	518	
12	0	0	0	0	511	511	
13	0	0	0	0	510	510	
14	0	0	0	0	508	510	
15	0	0	0	0	512	511	
0	0	0	0	0	511	515	
1	0	0	0	0	509	519	
2	0	0	0	0	511	518	
3	0	0	0	0	513	515	
4	0	0	0	0	511	510	
5	0	0	0	0	513	504	
6	0	0	0	0	511	503	
7	0	0	0	0	511	509	
8	0	0	0	0	513	512	
9	0	0	0	0	509	509	
10	0	0	0	0	511	504	
11	0	0	0	0	509	507	
12	0	0	0	0	511	511	
13	0	0	0	0	510	514	
14	0	0	0	0	511	511	
15	0	0	0	0	512	512	
0	0	0	0	0	508	513	
1	0	0	0	0	511	511	
2	0	0	0	0	511	512	
3	0	0	0	0	510	510	
4	0	0	0	0	511	515	
5	0	0	0	0	513	517	
6	0	0	0	0	512	513	
7	0	0	0	0	512	510	
8	0	0	0	0	511	512	
9	0	0	0	0	512	512	
10	0	0	0	0	510	509	
11	0	0	0	0	512	508	
12	0	0	0	0	511	504	
13	0	0	0	0	510	506	
14	0	0	0	0	512	509	
15	0	0	0	0	512	508	
0	0	0	0	0	510	507	
1	0	0	0	0	511	508	
2	0	0	0	0	512	509	
3	0	0	0	0	509	507	
4	0	0	0	0	507	508	
5	0	0	0	0	510	508	
6	0	0	0	0	509	511	
7	0	0	0	0	509	511	
8	0	0	0	0	511	513	
9	0	0	0	0	509	517	
10	0	0	0	0	511	515	
11	0	0	0	0	513	513	
12	0	0	0	0	511	512	
13	0	0	0	0	512	512	
14	0	0	0	0	511	513	
15	0	0	0	0	511	515	
0	0	0	0	0	511	515	
1	0	0	0	0	511	512	
2	0	0	0	0	511	508	
3	0	0	0	0	509	508	
4	0	0	0	0	511	510	
5	0	0	0	0	508	508	
6	0	0	0	0	511	508	
7	0	0	0	0	509	511	
8	0	0	0	0	507	504	
9	0	0	0	0	510	504	
10	0	0	0	0	508	503	
11	0	0	0	0	512	506	
12	0	0	0	0	514	519	
13	0	0	0	0	511	512	
14	0	0	0	0	510	509	
15	0	0	0	0	513	505	
0	0	0	0	0	518	499	
1	0	0	0	0	515	500	
2	0	0	0	0	514	508	
3	0	0	0	0	513	516	
4	0	0	0	0	510	517	
5	0	0	0	0	507	518	
6	0	0	0	0	505	517	
7	0	0	0	0	504	518	
8	0	0	0	0	504	511	
9	0	0	0	0	504	509	
10	0	0	0	0	507	513	
11	0	0	0	0	511	510	
12	0	0	0	0	512	513	
13	0	0	0	0	512	516	
14	0	0	0	0	511	517	
15	0	0	0	0	511	516	
0	0	0	0	0	513	515	
1	0	0	0	0	513	511	
2	0	0	0	0	513	508	
3	0	0	0	0	511	504	
4	0	0	0	0	507	501	
5	0	0	0	0	509	505	
6	0	0	0	0	512	511	
7	0	0	0	0	511	517	
8	0	0	0	0	513	518	
9	0	0	0	0	511	511	
10	0	0	0	0	512	498	
11	0	0	0	0	513	492	
12	0	0	0	0	513	499	
13	0	0	0	0	514	507	
14	0	0	0	0	511	512	
15	0	0	0	0	513	521	
0	0	0	0	0	511	512	
1	0	0	0	0	512	507	
2	0	0	0	0	512	504	
3	0	0	0	0	511	506	
4	0	0	0	0	511	509	
5	0	0	0	0	513	515	
6	0	0	0	0	510	512	
7	0	0	0	0	512	510	
8	0	0	0	0	510	511	
9	0	0	0	0	508	515	
10	0	0	0	0	506	516	
11	0	0	0	0	509	515	
12	0	0	0	0	510	511	
13	0	0	0	0	510	512	
14	0	0	0	0	513	508	
15	0	0	0	0	513	505	
0	0	0	0	0	511	512	
1	0	0	0	0	511	519	
2	0	0	0	0	510	517	
3	0	0	0	0	508	510	
4	0	0	0	0	511	511	
5	0	0	0	0	508	511	
6	0	0	0	0	510	512	
7	0	0	0	0	511	513	
8	0	0	0	0	511	514	
9	0	0	0	0	510	508	
10	0	0	0	0	511	507	
11	0	0	0	0	511	511	
12	0	0	0	0	512	514	
13	0	0	0	0	510	511	
14	0	0	0	0	510	510	
15	0	0	0	0	513	510	
0	0	0	0	0	513	503	
1	0	0	0	0	510	504	
2	0	0	0	0	508	511	
3	0	0	0	0	508	513	
4	0	0	0	0	509	511	
5	0	0	0	0	510	504	
6	0	0	0	0	512	507	
7	0	0	0	0	511	513	
8	0	0	0	0	511	514	
9	0	0	0	0	511	513	
10	0	0	0	0	509	512	
11	0	0	0	0	512	507	
12	0	0	0	0	510	508	
13	0	0	0	0	513	505	
14	0	0	0	0	511	514	
15	0	0	0	0	511	511	
0	0	0	0	0	510	508	
1	0	0	0	0	513	505	
2	0	0	0	0	511	506	
3	0	0	0	0	511	507	
4	0	0	0	0	510	508	
5	0	0	0	0	510	514	
6	0	0	0	0	511	515	
7	0	0	0	0	508	515	
8	0	0	0	0	508	512	
9	0	0	0	0	508	512	
10	0	0	0	0	508	512	
11	0	0	0	0	511	512	
12	0	0	0	0	511	508	
13	0	0	0	0	511	507	
14	0	0	0	0	511	513	
15	0	0	0	0	512	510	
0	0	0	0	0	515	511	
1	0	0	0	0	510	512	
2	0	0	0	0	511	509	
3	0	0	0	0	511	513	
4	0	0	0	0	510	513	
5	0	0	0	0	512	513	
6	0	0	0	0	509	512	
7	0	0	0	0	507	515	
8	0	0	0	0	511	510	
9	0	0	0	0	510	508	
10	0	0	0	0	509	510	
11	0	0	0	0	511	508	
12	0	0	0	0	511	506	
13	0	0	0	0	513	507	
14	0	0	0	0	512	506	
15	0	0	0	0	512	510	
0	0	0	0	0	511	507	
1	0	0	0	0	511	504	
2	0	0	0	0	511	503	
3	0	0	0	0	510	513	
4	0	0	0	0	510	529	
5	0	0	0	0	509	527	
6	0	0	0	0	513	521	
7	0	0	0	0	513	510	
8	0	0	0	0	510	503	
9	0	0	0	0	511	499	
10	0	0	0	0	510	503	
11	0	0	0	0	509	507	
12	0	0	0	0	509	505	
13	0	0	0	0	511	504	
14	0	0	0	0	513	508	
15	0	0	0	0	516	508	
0	0	0	0	0	517	510	
1	0	0	0	0	514	516	
2	0	0	0	0	511	518	
3	0	0	0	0	507	518	
4	0	0	0	0	508	518	
5	0	0	0	0	511	513	
6	0	0	0	0	508	510	
7	0	0	0	0	508	506	
8	0	0	0	0	508	504	
9	0	0	0	0	509	512	
10	0	0	0	0	510	516	
11	0	0	0	0	514	522	
12	0	0	0	0	516	522	
13	0	0	0	0	517	515	
14	0	0	0	0	512	505	
15	0	0	0	0	511	495	
0	0	0	0	0	511	492	
1	0	0	0	0	507	498	
2	0	0	0	0	505	497	
3	0	0	0	0	504	504	
4	0	0	0	0	503	512	
5	0	0	0	0	507	516	
6	0	0	0	0	510	516	
7	0	0	0	0	511	519	
8	0	0	0	0	510	514	
9	0	0	0	0	511	511	
10	0	0	0	0	514	510	
11	0	0	0	0	511	508	
12	0	0	0	0	508	510	
13	0	0	0	0	508	514	
14	0	0	0	0	510	515	
15	0	0	0	0	513	517	
0	0	0	0	0	513	516	
1	0	0	0	0	511	516	
2	0	0	0	0	511	513	
3	0	0	0	0	510	516	
4	0	0	0	0	508	518	
5	0	0	0	0	512	517	
6	0	0	0	0	514	517	
7	0	0	0	0	513	511	
8	0	0	0	0	513	503	
9	0	0	0	0	515	498	
10	0	0	0	0	513	504	
11	0	0	0	0	515	504	
12	0	0	0	0	517	510	
13	0	0	0	0	514	512	
14	0	0	0	0	512	511	
15	0	0	0	0	508	508	
0	0	0	0	0	505	508	
1	0	0	0	0	499	506	
2	0	0	0	0	499	507	
3	0	0	0	0	500	505	
4	0	0	0	0	503	504	
5	0	0	0	0	506	511	
6	0	0	0	0	515	513	
7	0	0	0	0	515	515	
8	0	0	0	0	517	513	
9	0	0	0	0	516	519	
10	0	0	0	0	514	518	
11	0	0	0	0	511	513	
12	0	0	0	0	511	509	
13	0	0	0	0	512	505	
14	0	0	0	0	514	506	
15	0	0	0	0	517	508	
0	0	0	0	0	516	507	
1	0	0	0	0	514	509	
2	0	0	0	0	511	514	
3	0	0	0	0	510	511	
