# OpenSignals Text File Format. Version 1
# {"98:D3:11:FE:05:A2": {"position": 0, "device": "bitalino_rev", "device name": "98:D3:11:FE:05:A2", "device connection": "BTH98:D3:11:FE:05:A2", "sampling rate": 1000, "resolution": [4, 1, 1, 1, 1, 10, 10], "firmware version": 1282, "comments": "", "keywords": "", "mode": 0, "sync interval": 2, "date": "2026-6-26", "time": "15:24:38.899", "channels": [1, 2], "sensor": ["EMGBITREV", "EMGBITREV"], "label": ["A1", "A2"], "column": ["nSeq", "I1", "I2", "O1", "O2", "A1", "A2"], "special": [{}, {}], "digital IO": [0, 0, 1, 1]}}
# EndOfHeader
0	0	0	0	0	500	512	
1	0	0	0	0	483	510	
2	0	0	0	0	484	511	
3	0	0	0	0	487	511	
4	0	0	0	0	506	511	
5	0	0	0	0	525	511	
6	0	0	0	0	526	510	
7	0	0	0	0	515	510	
8	0	0	0	0	515	510	
9	0	0	0	0	502	508	
10	0	0	0	0	487	510	
11	0	0	0	0	482	512	
12	0	0	0	0	526	510	
13	0	0	0	0	539	508	
14	0	0	0	0	504	510	
15	0	0	0	0	470	511	
0	0	0	0	0	456	512	
1	0	0	0	0	441	510	
2	0	0	0	0	428	509	
3	0	0	0	0	433	510	
4	0	0	0	0	450	511	
5	0	0	0	0	489	510	
6	0	0	0	0	528	511	
7	0	0	0	0	555	510	
8	0	0	0	0	561	510	
9	0	0	0	0	555	511	
10	0	0	0	0	551	509	
11	0	0	0	0	547	511	
12	0	0	0	0	537	510	
13	0	0	0	0	533	511	
14	0	0	0	0	524	512	
15	0	0	0	0	523	509	
0	0	0	0	0	526	508	
1	0	0	0	0	519	509	
2	0	0	0	0	510	511	
3	0	0	0	0	513	511	
4	0	0	0	0	516	511	
5	0	0	0	0	516	509	
6	0	0	0	0	510	510	
7	0	0	0	0	505	510	
8	0	0	0	0	512	509	
9	0	0	0	0	516	510	
10	0	0	0	0	518	510	
11	0	0	0	0	524	512	
12	0	0	0	0	524	511	
13	0	0	0	0	521	511	
14	0	0	0	0	513	509	
15	0	0	0	0	512	512	
0	0	0	0	0	507	509	
1	0	0	0	0	493	510	
2	0	0	0	0	492	512	
3	0	0	0	0	488	511	
4	0	0	0	0	487	509	
5	0	0	0	0	484	508	
6	0	0	0	0	489	509	
7	0	0	0	0	499	512	
8	0	0	0	0	510	510	
9	0	0	0	0	516	510	
10	0	0	0	0	518	512	
11	0	0	0	0	519	511	
12	0	0	0	0	520	510	
13	0	0	0	0	519	509	
14	0	0	0	0	522	510	
15	0	0	0	0	525	510	
0	0	0	0	0	531	512	
1	0	0	0	0	527	510	
2	0	0	0	0	522	509	
3	0	0	0	0	524	510	
4	0	0	0	0	519	508	
5	0	0	0	0	510	511	
6	0	0	0	0	508	511	
7	0	0	0	0	509	508	
8	0	0	0	0	525	510	
9	0	0	0	0	532	511	
10	0	0	0	0	532	510	
11	0	0	0	0	532	510	
12	0	0	0	0	535	511	
13	0	0	0	0	530	511	
14	0	0	0	0	507	510	
15	0	0	0	0	477	510	
0	0	0	0	0	459	508	
1	0	0	0	0	443	511	
2	0	0	0	0	435	513	
3	0	0	0	0	437	511	
4	0	0	0	0	449	509	
5	0	0	0	0	468	511	
6	0	0	0	0	481	509	
7	0	0	0	0	505	509	
8	0	0	0	0	524	508	
9	0	0	0	0	539	512	
10	0	0	0	0	548	512	
11	0	0	0	0	557	510	
12	0	0	0	0	560	509	
13	0	0	0	0	555	508	
14	0	0	0	0	538	511	
15	0	0	0	0	527	510	
0	0	0	0	0	519	509	
1	0	0	0	0	522	508	
2	0	0	0	0	524	509	
3	0	0	0	0	527	513	
4	0	0	0	0	527	510	
5	0	0	0	0	529	509	
6	0	0	0	0	532	509	
7	0	0	0	0	515	511	
8	0	0	0	0	486	512	
9	0	0	0	0	466	510	
10	0	0	0	0	465	509	
11	0	0	0	0	467	511	
12	0	0	0	0	472	508	
13	0	0	0	0	485	511	
14	0	0	0	0	497	510	
15	0	0	0	0	511	512	
0	0	0	0	0	519	511	
1	0	0	0	0	525	510	
2	0	0	0	0	531	511	
3	0	0	0	0	533	511	
4	0	0	0	0	532	512	
5	0	0	0	0	530	512	
6	0	0	0	0	523	508	
7	0	0	0	0	516	508	
8	0	0	0	0	511	511	
9	0	0	0	0	507	510	
10	0	0	0	0	508	511	
11	0	0	0	0	509	508	
12	0	0	0	0	527	510	
13	0	0	0	0	535	510	
14	0	0	0	0	523	508	
15	0	0	0	0	509	510	
0	0	0	0	0	506	512	
1	0	0	0	0	512	510	
2	0	0	0	0	497	509	
3	0	0	0	0	486	508	
4	0	0	0	0	509	509	
5	0	0	0	0	560	510	
6	0	0	0	0	568	512	
7	0	0	0	0	552	511	
8	0	0	0	0	540	511	
9	0	0	0	0	510	510	
10	0	0	0	0	472	512	
11	0	0	0	0	443	513	
12	0	0	0	0	435	510	
13	0	0	0	0	463	511	
14	0	0	0	0	475	511	
15	0	0	0	0	473	511	
0	0	0	0	0	487	507	
1	0	0	0	0	504	509	
2	0	0	0	0	512	510	
3	0	0	0	0	510	510	
4	0	0	0	0	518	512	
5	0	0	0	0	523	511	
6	0	0	0	0	537	510	
7	0	0	0	0	530	509	
8	0	0	0	0	524	512	
9	0	0	0	0	514	512	
10	0	0	0	0	496	509	
11	0	0	0	0	494	510	
12	0	0	0	0	497	511	
13	0	0	0	0	499	509	
14	0	0	0	0	504	512	
15	0	0	0	0	514	512	
0	0	0	0	0	523	508	
1	0	0	0	0	533	510	
2	0	0	0	0	531	508	
3	0	0	0	0	533	511	
4	0	0	0	0	532	510	
5	0	0	0	0	536	510	
6	0	0	0	0	535	510	
7	0	0	0	0	531	509	
8	0	0	0	0	521	508	
9	0	0	0	0	524	510	
10	0	0	0	0	524	510	
11	0	0	0	0	517	512	
12	0	0	0	0	501	509	
13	0	0	0	0	485	512	
14	0	0	0	0	486	511	
15	0	0	0	0	486	511	
0	0	0	0	0	492	510	
1	0	0	0	0	503	510	
2	0	0	0	0	520	511	
3	0	0	0	0	523	511	
4	0	0	0	0	521	508	
5	0	0	0	0	546	510	
6	0	0	0	0	560	508	
7	0	0	0	0	550	508	
8	0	0	0	0	529	511	
9	0	0	0	0	496	511	
10	0	0	0	0	480	514	
11	0	0	0	0	471	511	
12	0	0	0	0	460	511	
13	0	0	0	0	470	512	
14	0	0	0	0	487	512	
15	0	0	0	0	520	508	
0	0	0	0	0	550	510	
1	0	0	0	0	535	511	
2	0	0	0	0	510	509	
3	0	0	0	0	499	510	
4	0	0	0	0	495	512	
5	0	0	0	0	473	511	
6	0	0	0	0	462	510	
7	0	0	0	0	472	511	
8	0	0	0	0	491	510	
9	0	0	0	0	509	511	
10	0	0	0	0	517	510	
11	0	0	0	0	533	509	
12	0	0	0	0	554	510	
13	0	0	0	0	553	509	
14	0	0	0	0	549	512	
15	0	0	0	0	533	511	
0	0	0	0	0	535	511	
1	0	0	0	0	515	511	
2	0	0	0	0	491	512	
3	0	0	0	0	468	512	
4	0	0	0	0	465	509	
5	0	0	0	0	478	510	
6	0	0	0	0	488	510	
7	0	0	0	0	512	511	
8	0	0	0	0	533	510	
9	0	0	0	0	537	510	
10	0	0	0	0	550	510	
11	0	0	0	0	555	512	
12	0	0	0	0	542	510	
13	0	0	0	0	515	512	
14	0	0	0	0	497	511	
15	0	0	0	0	495	510	
0	0	0	0	0	489	510	
1	0	0	0	0	499	513	
2	0	0	0	0	505	509	
3	0	0	0	0	515	511	
4	0	0	0	0	522	509	
5	0	0	0	0	536	510	
6	0	0	0	0	529	510	
7	0	0	0	0	517	511	
8	0	0	0	0	498	513	
9	0	0	0	0	477	512	
10	0	0	0	0	462	510	
11	0	0	0	0	460	509	
12	0	0	0	0	478	510	
13	0	0	0	0	501	509	
14	0	0	0	0	518	508	
15	0	0	0	0	526	509	
0	0	0	0	0	534	510	
1	0	0	0	0	544	510	
2	0	0	0	0	548	512	
3	0	0	0	0	543	511	
4	0	0	0	0	555	511	
5	0	0	0	0	571	510	
6	0	0	0	0	577	510	
7	0	0	0	0	556	511	
8	0	0	0	0	516	510	
9	0	0	0	0	471	509	
10	0	0	0	0	449	510	
11	0	0	0	0	457	511	
12	0	0	0	0	474	511	
13	0	0	0	0	507	511	
14	0	0	0	0	514	511	
15	0	0	0	0	515	511	
0	0	0	0	0	505	511	
1	0	0	0	0	477	512	
2	0	0	0	0	444	512	
3	0	0	0	0	435	513	
4	0	0	0	0	447	512	
5	0	0	0	0	480	511	
6	0	0	0	0	508	512	
7	0	0	0	0	527	511	
8	0	0	0	0	529	512	
9	0	0	0	0	527	515	
10	0	0	0	0	523	515	
11	0	0	0	0	522	515	
12	0	0	0	0	521	512	
13	0	0	0	0	531	512	
14	0	0	0	0	537	515	
15	0	0	0	0	539	515	
0	0	0	0	0	532	513	
1	0	0	0	0	525	513	
2	0	0	0	0	521	511	
3	0	0	0	0	518	510	
4	0	0	0	0	523	510	
5	0	0	0	0	526	508	
6	0	0	0	0	525	507	
7	0	0	0	0	519	504	
8	0	0	0	0	513	504	
9	0	0	0	0	511	504	
10	0	0	0	0	531	503	
11	0	0	0	0	540	503	
12	0	0	0	0	530	503	
13	0	0	0	0	519	505	
14	0	0	0	0	504	506	
15	0	0	0	0	503	507	
0	0	0	0	0	492	506	
1	0	0	0	0	486	505	
2	0	0	0	0	495	506	
3	0	0	0	0	512	504	
4	0	0	0	0	516	505	
5	0	0	0	0	509	506	
6	0	0	0	0	519	507	
7	0	0	0	0	519	508	
8	0	0	0	0	516	509	
9	0	0	0	0	502	510	
10	0	0	0	0	496	510	
11	0	0	0	0	499	513	
12	0	0	0	0	498	514	
13	0	0	0	0	502	515	
14	0	0	0	0	503	514	
15	0	0	0	0	491	513	
0	0	0	0	0	485	513	
1	0	0	0	0	495	514	
2	0	0	0	0	507	513	
3	0	0	0	0	524	512	
4	0	0	0	0	531	511	
5	0	0	0	0	529	510	
6	0	0	0	0	545	513	
7	0	0	0	0	542	512	
8	0	0	0	0	524	512	
9	0	0	0	0	502	511	
10	0	0	0	0	490	513	
11	0	0	0	0	482	511	
12	0	0	0	0	480	512	
13	0	0	0	0	465	510	
14	0	0	0	0	460	513	
15	0	0	0	0	481	514	
0	0	0	0	0	503	511	
1	0	0	0	0	509	510	
2	0	0	0	0	520	511	
3	0	0	0	0	544	510	
4	0	0	0	0	558	511	
5	0	0	0	0	545	512	
6	0	0	0	0	532	512	
7	0	0	0	0	519	512	
8	0	0	0	0	511	512	
9	0	0	0	0	503	513	
10	0	0	0	0	497	512	
11	0	0	0	0	511	511	
12	0	0	0	0	515	510	
13	0	0	0	0	504	512	
14	0	0	0	0	504	512	
15	0	0	0	0	516	511	
0	0	0	0	0	548	511	
1	0	0	0	0	560	511	
2	0	0	0	0	542	508	
3	0	0	0	0	522	510	
4	0	0	0	0	517	510	
5	0	0	0	0	507	509	
6	0	0	0	0	496	510	
7	0	0	0	0	476	507	
8	0	0	0	0	472	508	
9	0	0	0	0	484	511	
10	0	0	0	0	500	513	
11	0	0	0	0	515	510	
12	0	0	0	0	521	508	
13	0	0	0	0	539	508	
14	0	0	0	0	534	507	
15	0	0	0	0	522	509	
0	0	0	0	0	504	510	
1	0	0	0	0	483	510	
2	0	0	0	0	469	509	
3	0	0	0	0	462	511	
4	0	0	0	0	442	512	
5	0	0	0	0	479	512	
6	0	0	0	0	507	508	
7	0	0	0	0	518	508	
8	0	0	0	0	536	512	
9	0	0	0	0	537	508	
10	0	0	0	0	526	510	
11	0	0	0	0	515	511	
12	0	0	0	0	501	511	
13	0	0	0	0	508	508	
14	0	0	0	0	507	509	
15	0	0	0	0	507	510	
0	0	0	0	0	515	508	
1	0	0	0	0	541	509	
2	0	0	0	0	563	510	
3	0	0	0	0	562	509	
4	0	0	0	0	562	510	
5	0	0	0	0	546	510	
6	0	0	0	0	523	511	
7	0	0	0	0	497	511	
8	0	0	0	0	491	510	
9	0	0	0	0	480	511	
10	0	0	0	0	477	512	
11	0	0	0	0	477	511	
12	0	0	0	0	480	511	
13	0	0	0	0	481	510	
14	0	0	0	0	491	508	
15	0	0	0	0	493	510	
0	0	0	0	0	507	509	
1	0	0	0	0	526	510	
2	0	0	0	0	541	512	
3	0	0	0	0	555	509	
4	0	0	0	0	552	512	
5	0	0	0	0	538	509	
6	0	0	0	0	519	510	
7	0	0	0	0	504	512	
8	0	0	0	0	504	510	
9	0	0	0	0	509	510	
10	0	0	0	0	511	509	
11	0	0	0	0	510	510	
12	0	0	0	0	513	508	
13	0	0	0	0	536	508	
14	0	0	0	0	534	511	
15	0	0	0	0	520	511	
0	0	0	0	0	528	510	
1	0	0	0	0	520	510	
2	0	0	0	0	494	511	
3	0	0	0	0	469	510	
4	0	0	0	0	464	510	
5	0	0	0	0	463	512	
6	0	0	0	0	468	512	
7	0	0	0	0	458	509	
8	0	0	0	0	455	510	
9	0	0	0	0	478	513	
10	0	0	0	0	503	512	
11	0	0	0	0	513	512	
12	0	0	0	0	525	510	
13	0	0	0	0	524	510	
14	0	0	0	0	527	510	
15	0	0	0	0	543	509	
0	0	0	0	0	554	510	
1	0	0	0	0	563	510	
2	0	0	0	0	561	510	
3	0	0	0	0	536	505	
4	0	0	0	0	513	510	
5	0	0	0	0	491	512	
6	0	0	0	0	478	511	
7	0	0	0	0	457	510	
8	0	0	0	0	470	510	
9	0	0	0	0	495	509	
10	0	0	0	0	509	512	
11	0	0	0	0	520	509	
12	0	0	0	0	524	510	
13	0	0	0	0	519	512	
14	0	0	0	0	513	508	
15	0	0	0	0	512	509	
0	0	0	0	0	515	510	
1	0	0	0	0	523	512	
2	0	0	0	0	527	512	
3	0	0	0	0	525	509	
4	0	0	0	0	529	512	
5	0	0	0	0	535	510	
6	0	0	0	0	543	510	
7	0	0	0	0	541	509	
8	0	0	0	0	528	510	
9	0	0	0	0	518	508	
10	0	0	0	0	515	507	
11	0	0	0	0	533	512	
12	0	0	0	0	536	511	
13	0	0	0	0	515	511	
14	0	0	0	0	502	511	
15	0	0	0	0	500	508	
0	0	0	0	0	487	508	
1	0	0	0	0	461	511	
2	0	0	0	0	443	513	
3	0	0	0	0	438	511	
4	0	0	0	0	464	508	
5	0	0	0	0	482	511	
6	0	0	0	0	496	509	
7	0	0	0	0	504	512	
8	0	0	0	0	519	510	
9	0	0	0	0	526	509	
10	0	0	0	0	535	510	
11	0	0	0	0	534	510	
12	0	0	0	0	538	509	
13	0	0	0	0	536	510	
14	0	0	0	0	532	512	
15	0	0	0	0	545	511	
0	0	0	0	0	568	509	
1	0	0	0	0	556	510	
2	0	0	0	0	530	511	
3	0	0	0	0	496	513	
4	0	0	0	0	476	511	
5	0	0	0	0	475	509	
6	0	0	0	0	467	510	
7	0	0	0	0	470	511	
8	0	0	0	0	476	511	
9	0	0	0	0	497	509	
10	0	0	0	0	517	510	
11	0	0	0	0	516	509	
12	0	0	0	0	510	511	
13	0	0	0	0	499	510	
14	0	0	0	0	504	512	
15	0	0	0	0	504	512	
0	0	0	0	0	505	512	
1	0	0	0	0	515	513	
2	0	0	0	0	526	512	
3	0	0	0	0	533	509	
4	0	0	0	0	529	510	
5	0	0	0	0	527	510	
6	0	0	0	0	530	510	
7	0	0	0	0	559	509	
8	0	0	0	0	563	510	
9	0	0	0	0	546	508	
10	0	0	0	0	536	509	
11	0	0	0	0	528	513	
12	0	0	0	0	493	510	
13	0	0	0	0	453	510	
14	0	0	0	0	447	511	
15	0	0	0	0	465	508	
0	0	0	0	0	482	510	
1	0	0	0	0	505	511	
2	0	0	0	0	503	512	
3	0	0	0	0	504	511	
4	0	0	0	0	516	510	
5	0	0	0	0	504	511	
6	0	0	0	0	484	511	
7	0	0	0	0	476	509	
8	0	0	0	0	468	510	
9	0	0	0	0	474	509	
10	0	0	0	0	488	509	
11	0	0	0	0	502	509	
12	0	0	0	0	511	510	
13	0	0	0	0	525	510	
14	0	0	0	0	529	510	
15	0	0	0	0	536	510	
0	0	0	0	0	539	510	
1	0	0	0	0	537	509	
2	0	0	0	0	538	510	
3	0	0	0	0	559	512	
4	0	0	0	0	575	512	
5	0	0	0	0	572	512	
6	0	0	0	0	567	509	
7	0	0	0	0	546	510	
8	0	0	0	0	515	513	
9	0	0	0	0	481	511	
10	0	0	0	0	450	511	
11	0	0	0	0	435	510	
12	0	0	0	0	443	510	
13	0	0	0	0	461	510	
14	0	0	0	0	477	510	
15	0	0	0	0	507	509	
0	0	0	0	0	527	509	
1	0	0	0	0	544	510	
2	0	0	0	0	550	510	
3	0	0	0	0	539	509	
4	0	0	0	0	526	507	
5	0	0	0	0	510	510	
6	0	0	0	0	496	511	
7	0	0	0	0	487	513	
8	0	0	0	0	493	511	
9	0	0	0	0	505	510	
10	0	0	0	0	520	508	
11	0	0	0	0	530	509	
12	0	0	0	0	542	509	
13	0	0	0	0	536	510	
14	0	0	0	0	524	511	
15	0	0	0	0	505	512	
0	0	0	0	0	491	511	
1	0	0	0	0	488	511	
2	0	0	0	0	494	511	
3	0	0	0	0	499	509	
4	0	0	0	0	511	510	
5	0	0	0	0	513	510	
6	0	0	0	0	516	510	
7	0	0	0	0	523	508	
8	0	0	0	0	533	512	
9	0	0	0	0	543	512	
10	0	0	0	0	520	511	
11	0	0	0	0	500	509	
12	0	0	0	0	494	508	
13	0	0	0	0	489	508	
14	0	0	0	0	488	507	
15	0	0	0	0	492	511	
0	0	0	0	0	499	508	
1	0	0	0	0	494	512	
2	0	0	0	0	486	512	
3	0	0	0	0	483	511	
4	0	0	0	0	481	510	
5	0	0	0	0	491	509	
6	0	0	0	0	504	509	
7	0	0	0	0	503	509	
8	0	0	0	0	512	511	
9	0	0	0	0	521	512	
10	0	0	0	0	525	511	
11	0	0	0	0	527	513	
12	0	0	0	0	531	511	
13	0	0	0	0	532	510	
14	0	0	0	0	531	511	
15	0	0	0	0	529	508	
0	0	0	0	0	527	510	
1	0	0	0	0	544	510	
2	0	0	0	0	562	511	
3	0	0	0	0	559	510	
4	0	0	0	0	537	511	
5	0	0	0	0	513	511	
6	0	0	0	0	500	510	
7	0	0	0	0	495	510	
8	0	0	0	0	500	510	
9	0	0	0	0	494	511	
10	0	0	0	0	487	511	
11	0	0	0	0	494	511	
12	0	0	0	0	505	512	
13	0	0	0	0	496	510	
14	0	0	0	0	477	512	
15	0	0	0	0	468	512	
0	0	0	0	0	468	510	
1	0	0	0	0	475	510	
2	0	0	0	0	487	511	
3	0	0	0	0	496	511	
4	0	0	0	0	508	508	
5	0	0	0	0	533	509	
6	0	0	0	0	553	509	
7	0	0	0	0	558	511	
8	0	0	0	0	543	512	
9	0	0	0	0	541	508	
10	0	0	0	0	537	508	
11	0	0	0	0	535	511	
12	0	0	0	0	538	509	
13	0	0	0	0	544	508	
14	0	0	0	0	538	511	
15	0	0	0	0	509	510	
0	0	0	0	0	471	511	
1	0	0	0	0	455	512	
2	0	0	0	0	453	511	
3	0	0	0	0	454	511	
4	0	0	0	0	470	510	
5	0	0	0	0	496	511	
6	0	0	0	0	524	512	
7	0	0	0	0	534	510	
8	0	0	0	0	533	511	
9	0	0	0	0	548	511	
10	0	0	0	0	551	509	
11	0	0	0	0	525	511	
12	0	0	0	0	501	509	
13	0	0	0	0	482	510	
14	0	0	0	0	479	512	
15	0	0	0	0	467	511	
0	0	0	0	0	464	510	
1	0	0	0	0	487	512	
2	0	0	0	0	521	510	
3	0	0	0	0	542	510	
4	0	0	0	0	543	513	
5	0	0	0	0	531	513	
6	0	0	0	0	520	508	
7	0	0	0	0	518	508	
8	0	0	0	0	508	510	
9	0	0	0	0	499	509	
10	0	0	0	0	498	509	
11	0	0	0	0	508	509	
12	0	0	0	0	512	511	
13	0	0	0	0	512	511	
14	0	0	0	0	512	511	
15	0	0	0	0	520	510	
0	0	0	0	0	528	511	
1	0	0	0	0	532	510	
2	0	0	0	0	525	510	
3	0	0	0	0	518	512	
4	0	0	0	0	514	510	
5	0	0	0	0	507	511	
6	0	0	0	0	498	512	
7	0	0	0	0	494	511	
8	0	0	0	0	509	510	
9	0	0	0	0	519	509	
10	0	0	0	0	519	510	
11	0	0	0	0	515	512	
12	0	0	0	0	503	509	
13	0	0	0	0	501	510	
14	0	0	0	0	496	511	
15	0	0	0	0	492	512	
0	0	0	0	0	497	511	
1	0	0	0	0	508	510	
2	0	0	0	0	515	510	
3	0	0	0	0	518	510	
4	0	0	0	0	536	510	
5	0	0	0	0	543	510	
6	0	0	0	0	538	509	
7	0	0	0	0	522	510	
8	0	0	0	0	508	509	
9	0	0	0	0	500	511	
10	0	0	0	0	489	511	
11	0	0	0	0	487	511	
12	0	0	0	0	497	511	
13	0	0	0	0	510	511	
14	0	0	0	0	531	508	
15	0	0	0	0	530	509	
0	0	0	0	0	519	509	
1	0	0	0	0	509	511	
2	0	0	0	0	516	510	
3	0	0	0	0	528	509	
4	0	0	0	0	527	510	
5	0	0	0	0	515	507	
6	0	0	0	0	505	510	
7	0	0	0	0	496	511	
8	0	0	0	0	492	511	
9	0	0	0	0	475	511	
10	0	0	0	0	464	512	
11	0	0	0	0	487	512	
12	0	0	0	0	511	515	
13	0	0	0	0	503	511	
14	0	0	0	0	504	511	
15	0	0	0	0	505	508	
0	0	0	0	0	514	509	
1	0	0	0	0	527	511	
2	0	0	0	0	540	511	
3	0	0	0	0	542	509	
4	0	0	0	0	533	511	
5	0	0	0	0	515	512	
6	0	0	0	0	503	512	
7	0	0	0	0	520	511	
8	0	0	0	0	523	510	
9	0	0	0	0	512	510	
10	0	0	0	0	503	511	
11	0	0	0	0	496	511	
12	0	0	0	0	499	509	
13	0	0	0	0	498	511	
14	0	0	0	0	477	512	
15	0	0	0	0	475	510	
0	0	0	0	0	482	510	
1	0	0	0	0	496	509	
2	0	0	0	0	501	508	
3	0	0	0	0	503	510	
4	0	0	0	0	507	510	
5	0	0	0	0	515	509	
6	0	0	0	0	526	510	
7	0	0	0	0	528	511	
8	0	0	0	0	524	509	
9	0	0	0	0	518	510	
10	0	0	0	0	522	509	
11	0	0	0	0	529	510	
12	0	0	0	0	528	510	
13	0	0	0	0	530	511	
14	0	0	0	0	536	512	
15	0	0	0	0	534	510	
0	0	0	0	0	528	509	
1	0	0	0	0	515	512	
2	0	0	0	0	510	512	
3	0	0	0	0	517	509	
4	0	0	0	0	516	508	
5	0	0	0	0	507	510	
6	0	0	0	0	508	509	
7	0	0	0	0	507	510	
8	0	0	0	0	504	510	
9	0	0	0	0	494	511	
10	0	0	0	0	487	512	
11	0	0	0	0	490	511	
12	0	0	0	0	497	511	
13	0	0	0	0	504	511	
14	0	0	0	0	511	508	
15	0	0	0	0	515	508	
0	0	0	0	0	515	511	
1	0	0	0	0	514	509	
2	0	0	0	0	516	508	
3	0	0	0	0	519	509	
4	0	0	0	0	513	512	
5	0	0	0	0	512	510	
6	0	0	0	0	532	511	
7	0	0	0	0	543	510	
8	0	0	0	0	534	511	
9	0	0	0	0	511	513	
10	0	0	0	0	495	512	
11	0	0	0	0	500	511	
12	0	0	0	0	494	511	
13	0	0	0	0	477	510	
14	0	0	0	0	478	511	
15	0	0	0	0	487	511	
0	0	0	0	0	492	509	
1	0	0	0	0	488	510	
2	0	0	0	0	484	511	
3	0	0	0	0	497	511	
4	0	0	0	0	519	508	
5	0	0	0	0	543	509	
6	0	0	0	0	548	513	
7	0	0	0	0	547	510	
8	0	0	0	0	549	510	
9	0	0	0	0	544	510	
10	0	0	0	0	522	510	
11	0	0	0	0	495	510	
12	0	0	0	0	479	510	
13	0	0	0	0	480	511	
14	0	0	0	0	491	511	
15	0	0	0	0	498	509	
0	0	0	0	0	524	511	
1	0	0	0	0	540	512	
2	0	0	0	0	551	510	
3	0	0	0	0	550	508	
4	0	0	0	0	534	509	
5	0	0	0	0	512	509	
6	0	0	0	0	491	510	
7	0	0	0	0	472	510	
8	0	0	0	0	463	510	
9	0	0	0	0	473	509	
10	0	0	0	0	478	510	
11	0	0	0	0	486	510	
12	0	0	0	0	492	510	
13	0	0	0	0	498	511	
14	0	0	0	0	500	511	
15	0	0	0	0	516	509	
0	0	0	0	0	527	513	
1	0	0	0	0	527	511	
2	0	0	0	0	527	510	
3	0	0	0	0	531	512	
4	0	0	0	0	531	511	
5	0	0	0	0	529	511	
6	0	0	0	0	524	510	
7	0	0	0	0	525	510	
8	0	0	0	0	521	510	
9	0	0	0	0	511	508	
10	0	0	0	0	512	510	
11	0	0	0	0	518	511	
12	0	0	0	0	519	511	
13	0	0	0	0	516	511	
14	0	0	0	0	536	511	
15	0	0	0	0	535	511	
0	0	0	0	0	515	512	
1	0	0	0	0	497	509	
2	0	0	0	0	486	512	
3	0	0	0	0	478	512	
4	0	0	0	0	489	510	
5	0	0	0	0	495	512	
6	0	0	0	0	499	509	
7	0	0	0	0	504	507	
8	0	0	0	0	509	510	
9	0	0	0	0	513	510	
10	0	0	0	0	505	512	
11	0	0	0	0	491	510	
12	0	0	0	0	488	510	
13	0	0	0	0	510	509	
14	0	0	0	0	534	510	
15	0	0	0	0	533	511	
0	0	0	0	0	519	511	
1	0	0	0	0	507	511	
2	0	0	0	0	499	511	
3	0	0	0	0	499	510	
4	0	0	0	0	496	509	
5	0	0	0	0	509	510	
6	0	0	0	0	524	510	
7	0	0	0	0	539	510	
8	0	0	0	0	542	510	
9	0	0	0	0	545	510	
10	0	0	0	0	535	510	
11	0	0	0	0	528	510	
12	0	0	0	0	519	511	
13	0	0	0	0	512	512	
14	0	0	0	0	504	512	
15	0	0	0	0	494	510	
0	0	0	0	0	481	507	
1	0	0	0	0	475	509	
2	0	0	0	0	470	511	
3	0	0	0	0	473	511	
4	0	0	0	0	515	510	
5	0	0	0	0	540	512	
6	0	0	0	0	543	510	
7	0	0	0	0	534	511	
8	0	0	0	0	540	510	
9	0	0	0	0	535	510	
10	0	0	0	0	523	508	
11	0	0	0	0	487	509	
12	0	0	0	0	465	510	
13	0	0	0	0	464	510	
14	0	0	0	0	463	510	
15	0	0	0	0	451	510	
0	0	0	0	0	467	511	
1	0	0	0	0	496	511	
2	0	0	0	0	533	511	
3	0	0	0	0	577	511	
4	0	0	0	0	615	510	
5	0	0	0	0	618	511	
6	0	0	0	0	606	510	
7	0	0	0	0	563	510	
8	0	0	0	0	508	511	
9	0	0	0	0	453	512	
10	0	0	0	0	409	510	
11	0	0	0	0	386	512	
12	0	0	0	0	398	509	
13	0	0	0	0	439	509	
14	0	0	0	0	475	509	
15	0	0	0	0	508	508	
0	0	0	0	0	534	512	
1	0	0	0	0	559	510	
2	0	0	0	0	582	511	
3	0	0	0	0	589	509	
4	0	0	0	0	581	511	
5	0	0	0	0	555	511	
6	0	0	0	0	528	511	
7	0	0	0	0	512	512	
8	0	0	0	0	497	510	
9	0	0	0	0	477	511	
10	0	0	0	0	466	511	
11	0	0	0	0	472	509	
12	0	0	0	0	492	511	
13	0	0	0	0	497	511	
14	0	0	0	0	504	512	
15	0	0	0	0	512	512	
0	0	0	0	0	517	510	
1	0	0	0	0	519	508	
2	0	0	0	0	519	509	
3	0	0	0	0	519	510	
4	0	0	0	0	521	511	
5	0	0	0	0	536	511	
6	0	0	0	0	540	510	
7	0	0	0	0	532	509	
8	0	0	0	0	527	510	
9	0	0	0	0	517	509	
10	0	0	0	0	499	512	
11	0	0	0	0	484	511	
12	0	0	0	0	489	510	
13	0	0	0	0	494	511	
14	0	0	0	0	497	511	
15	0	0	0	0	494	512	
0	0	0	0	0	501	512	
1	0	0	0	0	512	512	
2	0	0	0	0	513	511	
3	0	0	0	0	513	511	
4	0	0	0	0	518	511	
5	0	0	0	0	526	510	
6	0	0	0	0	538	511	
7	0	0	0	0	559	511	
8	0	0	0	0	562	510	
9	0	0	0	0	539	509	
10	0	0	0	0	526	509	
11	0	0	0	0	504	508	
12	0	0	0	0	498	511	
13	0	0	0	0	487	510	
14	0	0	0	0	463	510	
15	0	0	0	0	465	512	
0	0	0	0	0	472	508	
1	0	0	0	0	468	511	
2	0	0	0	0	473	511	
3	0	0	0	0	487	511	
4	0	0	0	0	498	508	
5	0	0	0	0	511	511	
6	0	0	0	0	511	511	
7	0	0	0	0	522	511	
8	0	0	0	0	535	510	
9	0	0	0	0	537	509	
10	0	0	0	0	538	510	
11	0	0	0	0	539	508	
12	0	0	0	0	537	508	
13	0	0	0	0	540	508	
14	0	0	0	0	542	509	
15	0	0	0	0	537	509	
0	0	0	0	0	519	512	
1	0	0	0	0	500	509	
2	0	0	0	0	481	512	
3	0	0	0	0	476	511	
4	0	0	0	0	489	511	
5	0	0	0	0	500	511	
6	0	0	0	0	524	512	
7	0	0	0	0	537	511	
8	0	0	0	0	542	509	
9	0	0	0	0	518	511	
10	0	0	0	0	489	512	
11	0	0	0	0	475	510	
12	0	0	0	0	470	510	
13	0	0	0	0	465	512	
14	0	0	0	0	477	512	
15	0	0	0	0	486	511	
0	0	0	0	0	507	510	
1	0	0	0	0	540	509	
2	0	0	0	0	560	510	
3	0	0	0	0	550	509	
4	0	0	0	0	534	508	
5	0	0	0	0	525	511	
6	0	0	0	0	549	510	
7	0	0	0	0	566	510	
8	0	0	0	0	538	511	
9	0	0	0	0	497	511	
10	0	0	0	0	472	511	
11	0	0	0	0	459	511	
12	0	0	0	0	457	510	
13	0	0	0	0	463	511	
14	0	0	0	0	476	512	
15	0	0	0	0	486	512	
0	0	0	0	0	529	510	
1	0	0	0	0	547	511	
2	0	0	0	0	534	510	
3	0	0	0	0	522	508	
4	0	0	0	0	524	510	
5	0	0	0	0	531	510	
6	0	0	0	0	531	511	
7	0	0	0	0	513	509	
8	0	0	0	0	503	511	
9	0	0	0	0	499	510	
10	0	0	0	0	491	511	
11	0	0	0	0	470	512	
12	0	0	0	0	468	510	
13	0	0	0	0	489	509	
14	0	0	0	0	511	510	
15	0	0	0	0	515	511	
0	0	0	0	0	516	510	
1	0	0	0	0	516	510	
2	0	0	0	0	519	509	
3	0	0	0	0	526	510	
4	0	0	0	0	526	509	
5	0	0	0	0	519	508	
6	0	0	0	0	523	509	
7	0	0	0	0	528	510	
8	0	0	0	0	523	511	
9	0	0	0	0	515	511	
10	0	0	0	0	510	510	
11	0	0	0	0	515	512	
12	0	0	0	0	517	510	
13	0	0	0	0	522	510	
14	0	0	0	0	519	511	
15	0	0	0	0	511	510	
0	0	0	0	0	504	509	
1	0	0	0	0	499	512	
2	0	0	0	0	496	510	
3	0	0	0	0	497	510	
4	0	0	0	0	499	511	
5	0	0	0	0	508	511	
6	0	0	0	0	516	509	
7	0	0	0	0	526	508	
8	0	0	0	0	534	511	
9	0	0	0	0	542	511	
10	0	0	0	0	550	511	
11	0	0	0	0	549	509	
12	0	0	0	0	521	510	
13	0	0	0	0	498	512	
14	0	0	0	0	491	510	
15	0	0	0	0	497	511	
0	0	0	0	0	501	512	
1	0	0	0	0	489	508	
2	0	0	0	0	487	510	
3	0	0	0	0	485	510	
4	0	0	0	0	480	510	
5	0	0	0	0	473	511	
6	0	0	0	0	479	512	
7	0	0	0	0	487	512	
8	0	0	0	0	499	512	
9	0	0	0	0	504	512	
10	0	0	0	0	511	511	
11	0	0	0	0	529	511	
12	0	0	0	0	546	512	
13	0	0	0	0	546	511	
14	0	0	0	0	539	512	
15	0	0	0	0	528	511	
0	0	0	0	0	530	511	
1	0	0	0	0	553	514	
2	0	0	0	0	568	513	
3	0	0	0	0	572	513	
4	0	0	0	0	551	512	
5	0	0	0	0	517	513	
6	0	0	0	0	483	513	
7	0	0	0	0	445	512	
8	0	0	0	0	413	513	
9	0	0	0	0	401	512	
10	0	0	0	0	429	512	
11	0	0	0	0	485	512	
12	0	0	0	0	518	512	
13	0	0	0	0	520	508	
14	0	0	0	0	526	510	
15	0	0	0	0	532	508	
0	0	0	0	0	563	507	
1	0	0	0	0	580	507	
2	0	0	0	0	566	504	
3	0	0	0	0	556	504	
4	0	0	0	0	521	504	
5	0	0	0	0	483	504	
6	0	0	0	0	465	505	
7	0	0	0	0	438	507	
8	0	0	0	0	439	507	
9	0	0	0	0	462	507	
10	0	0	0	0	486	508	
11	0	0	0	0	511	508	
12	0	0	0	0	516	506	
13	0	0	0	0	521	502	
14	0	0	0	0	524	504	
15	0	0	0	0	524	505	
0	0	0	0	0	523	508	
1	0	0	0	0	526	507	
2	0	0	0	0	535	509	
3	0	0	0	0	541	511	
4	0	0	0	0	539	510	
5	0	0	0	0	528	512	
6	0	0	0	0	524	512	
7	0	0	0	0	527	513	
8	0	0	0	0	522	513	
9	0	0	0	0	514	513	
10	0	0	0	0	509	513	
11	0	0	0	0	507	512	
12	0	0	0	0	508	513	
13	0	0	0	0	515	512	
14	0	0	0	0	515	512	
15	0	0	0	0	510	511	
0	0	0	0	0	517	512	
1	0	0	0	0	541	513	
2	0	0	0	0	571	511	
3	0	0	0	0	558	512	
4	0	0	0	0	522	511	
5	0	0	0	0	492	511	
6	0	0	0	0	472	511	
7	0	0	0	0	466	513	
8	0	0	0	0	455	513	
9	0	0	0	0	455	513	
10	0	0	0	0	476	511	
11	0	0	0	0	497	512	
12	0	0	0	0	514	510	
13	0	0	0	0	529	510	
14	0	0	0	0	533	509	
15	0	0	0	0	535	510	
0	0	0	0	0	536	512	
1	0	0	0	0	527	513	
2	0	0	0	0	509	512	
3	0	0	0	0	487	512	
4	0	0	0	0	470	511	
5	0	0	0	0	460	510	
6	0	0	0	0	470	511	
7	0	0	0	0	485	511	
8	0	0	0	0	501	512	
9	0	0	0	0	536	512	
10	0	0	0	0	561	512	
11	0	0	0	0	599	512	
12	0	0	0	0	605	511	
13	0	0	0	0	572	510	
14	0	0	0	0	521	509	
15	0	0	0	0	472	510	
0	0	0	0	0	445	509	
1	0	0	0	0	435	510	
2	0	0	0	0	433	509	
3	0	0	0	0	449	510	
4	0	0	0	0	469	509	
5	0	0	0	0	495	508	
6	0	0	0	0	521	512	
7	0	0	0	0	531	509	
8	0	0	0	0	537	512	
9	0	0	0	0	543	509	
10	0	0	0	0	550	510	
11	0	0	0	0	546	510	
12	0	0	0	0	536	510	
13	0	0	0	0	527	511	
14	0	0	0	0	523	511	
15	0	0	0	0	519	510	
0	0	0	0	0	517	510	
1	0	0	0	0	518	513	
2	0	0	0	0	513	513	
3	0	0	0	0	510	510	
4	0	0	0	0	502	512	
5	0	0	0	0	495	511	
6	0	0	0	0	500	509	
7	0	0	0	0	502	510	
8	0	0	0	0	502	510	
9	0	0	0	0	506	511	
10	0	0	0	0	508	510	
11	0	0	0	0	504	511	
12	0	0	0	0	508	511	
13	0	0	0	0	514	512	
14	0	0	0	0	519	509	
15	0	0	0	0	517	509	
0	0	0	0	0	529	511	
1	0	0	0	0	569	509	
2	0	0	0	0	591	511	
3	0	0	0	0	566	508	
4	0	0	0	0	516	510	
5	0	0	0	0	476	509	
6	0	0	0	0	448	510	
7	0	0	0	0	435	510	
8	0	0	0	0	430	511	
9	0	0	0	0	451	510	
10	0	0	0	0	491	508	
11	0	0	0	0	537	508	
12	0	0	0	0	552	510	
13	0	0	0	0	532	510	
14	0	0	0	0	516	511	
15	0	0	0	0	497	509	
0	0	0	0	0	485	512	
1	0	0	0	0	478	510	
2	0	0	0	0	490	510	
3	0	0	0	0	519	513	
4	0	0	0	0	526	511	
5	0	0	0	0	522	511	
6	0	0	0	0	517	509	
7	0	0	0	0	527	511	
8	0	0	0	0	549	508	
9	0	0	0	0	584	508	
10	0	0	0	0	587	511	
11	0	0	0	0	560	512	
12	0	0	0	0	519	510	
13	0	0	0	0	488	513	
14	0	0	0	0	469	514	
15	0	0	0	0	448	512	
0	0	0	0	0	429	508	
1	0	0	0	0	443	508	
2	0	0	0	0	456	508	
3	0	0	0	0	473	511	
4	0	0	0	0	506	511	
5	0	0	0	0	545	510	
6	0	0	0	0	561	509	
7	0	0	0	0	554	511	
8	0	0	0	0	530	510	
9	0	0	0	0	514	511	
10	0	0	0	0	505	512	
11	0	0	0	0	501	511	
12	0	0	0	0	526	508	
13	0	0	0	0	539	510	
14	0	0	0	0	524	509	
15	0	0	0	0	507	508	
0	0	0	0	0	496	508	
1	0	0	0	0	484	511	
2	0	0	0	0	475	512	
3	0	0	0	0	476	511	
4	0	0	0	0	493	511	
5	0	0	0	0	511	511	
6	0	0	0	0	511	510	
7	0	0	0	0	506	509	
8	0	0	0	0	515	510	
9	0	0	0	0	524	511	
10	0	0	0	0	540	510	
11	0	0	0	0	549	511	
12	0	0	0	0	549	508	
13	0	0	0	0	533	510	
14	0	0	0	0	520	511	
15	0	0	0	0	507	510	
0	0	0	0	0	505	511	
1	0	0	0	0	509	511	
2	0	0	0	0	512	508	
3	0	0	0	0	512	509	
4	0	0	0	0	511	508	
5	0	0	0	0	512	509	
6	0	0	0	0	513	511	
7	0	0	0	0	505	514	
8	0	0	0	0	502	510	
9	0	0	0	0	511	511	
10	0	0	0	0	517	512	
11	0	0	0	0	513	510	
12	0	0	0	0	498	510	
13	0	0	0	0	493	511	
14	0	0	0	0	495	511	
15	0	0	0	0	496	508	
0	0	0	0	0	498	508	
1	0	0	0	0	518	509	
2	0	0	0	0	528	511	
3	0	0	0	0	536	510	
4	0	0	0	0	536	511	
5	0	0	0	0	538	510	
6	0	0	0	0	524	510	
7	0	0	0	0	501	510	
8	0	0	0	0	477	511	
9	0	0	0	0	468	510	
10	0	0	0	0	493	511	
11	0	0	0	0	524	511	
12	0	0	0	0	520	511	
13	0	0	0	0	513	511	
14	0	0	0	0	515	508	
15	0	0	0	0	508	509	
0	0	0	0	0	489	510	
1	0	0	0	0	472	511	
2	0	0	0	0	494	511	
3	0	0	0	0	523	511	
4	0	0	0	0	523	510	
5	0	0	0	0	508	511	
6	0	0	0	0	506	509	
7	0	0	0	0	508	510	
8	0	0	0	0	511	510	
9	0	0	0	0	510	509	
10	0	0	0	0	515	509	
11	0	0	0	0	519	511	
12	0	0	0	0	519	510	
13	0	0	0	0	515	508	
14	0	0	0	0	513	511	
15	0	0	0	0	523	511	
0	0	0	0	0	532	510	
1	0	0	0	0	527	513	
2	0	0	0	0	529	515	
3	0	0	0	0	527	511	
4	0	0	0	0	526	510	
5	0	0	0	0	506	510	
6	0	0	0	0	488	511	
7	0	0	0	0	493	513	
8	0	0	0	0	493	510	
9	0	0	0	0	485	507	
10	0	0	0	0	483	507	
11	0	0	0	0	494	509	
12	0	0	0	0	502	509	
13	0	0	0	0	506	512	
14	0	0	0	0	514	511	
15	0	0	0	0	513	511	
0	0	0	0	0	516	511	
1	0	0	0	0	508	510	
2	0	0	0	0	505	509	
3	0	0	0	0	526	508	
4	0	0	0	0	537	509	
5	0	0	0	0	537	509	
6	0	0	0	0	522	511	
7	0	0	0	0	507	508	
8	0	0	0	0	501	509	
9	0	0	0	0	487	513	
10	0	0	0	0	492	512	
11	0	0	0	0	500	511	
12	0	0	0	0	504	509	
13	0	0	0	0	520	512	
14	0	0	0	0	519	509	
15	0	0	0	0	515	511	
0	0	0	0	0	513	510	
1	0	0	0	0	512	510	
2	0	0	0	0	538	512	
3	0	0	0	0	549	508	
4	0	0	0	0	535	508	
5	0	0	0	0	539	510	
6	0	0	0	0	554	510	
7	0	0	0	0	561	508	
8	0	0	0	0	543	510	
9	0	0	0	0	505	508	
10	0	0	0	0	489	511	
11	0	0	0	0	472	511	
12	0	0	0	0	458	512	
13	0	0	0	0	449	511	
14	0	0	0	0	446	510	
15	0	0	0	0	471	508	
0	0	0	0	0	508	510	
1	0	0	0	0	514	508	
2	0	0	0	0	502	510	
3	0	0	0	0	506	510	
4	0	0	0	0	502	510	
5	0	0	0	0	486	508	
6	0	0	0	0	482	511	
7	0	0	0	0	483	510	
8	0	0	0	0	505	510	
9	0	0	0	0	520	510	
10	0	0	0	0	524	510	
11	0	0	0	0	524	510	
12	0	0	0	0	527	510	
13	0	0	0	0	527	511	
14	0	0	0	0	516	510	
15	0	0	0	0	508	512	
0	0	0	0	0	515	510	
1	0	0	0	0	523	510	
2	0	0	0	0	524	511	
3	0	0	0	0	522	512	
4	0	0	0	0	525	510	
5	0	0	0	0	524	508	
6	0	0	0	0	535	511	
7	0	0	0	0	558	509	
8	0	0	0	0	560	510	
9	0	0	0	0	542	509	
10	0	0	0	0	518	511	
11	0	0	0	0	502	512	
12	0	0	0	0	487	509	
13	0	0	0	0	480	511	
14	0	0	0	0	472	511	
15	0	0	0	0	485	510	
0	0	0	0	0	530	509	
1	0	0	0	0	548	510	
2	0	0	0	0	551	510	
3	0	0	0	0	548	508	
4	0	0	0	0	526	507	
5	0	0	0	0	486	512	
6	0	0	0	0	450	512	
7	0	0	0	0	440	509	
8	0	0	0	0	445	510	
9	0	0	0	0	457	510	
10	0	0	0	0	481	512	
11	0	0	0	0	511	510	
12	0	0	0	0	526	512	
13	0	0	0	0	528	510	
14	0	0	0	0	537	510	
15	0	0	0	0	547	511	
0	0	0	0	0	549	512	
1	0	0	0	0	540	512	
2	0	0	0	0	524	509	
3	0	0	0	0	510	511	
4	0	0	0	0	496	509	
5	0	0	0	0	486	508	
6	0	0	0	0	482	510	
7	0	0	0	0	483	510	
8	0	0	0	0	491	510	
9	0	0	0	0	500	509	
10	0	0	0	0	521	510	
11	0	0	0	0	558	512	
12	0	0	0	0	573	513	
13	0	0	0	0	561	510	
14	0	0	0	0	531	509	
15	0	0	0	0	505	511	
0	0	0	0	0	483	509	
1	0	0	0	0	466	509	
2	0	0	0	0	476	510	
3	0	0	0	0	500	510	
4	0	0	0	0	539	511	
5	0	0	0	0	563	510	
6	0	0	0	0	551	512	
7	0	0	0	0	527	513	
8	0	0	0	0	504	511	
9	0	0	0	0	483	509	
10	0	0	0	0	464	509	
11	0	0	0	0	460	509	
12	0	0	0	0	457	510	
13	0	0	0	0	469	509	
14	0	0	0	0	493	508	
15	0	0	0	0	518	510	
0	0	0	0	0	528	509	
1	0	0	0	0	524	511	
2	0	0	0	0	518	509	
3	0	0	0	0	520	510	
4	0	0	0	0	526	510	
5	0	0	0	0	536	511	
6	0	0	0	0	563	510	
7	0	0	0	0	577	512	
8	0	0	0	0	558	510	
9	0	0	0	0	520	510	
10	0	0	0	0	491	509	
11	0	0	0	0	480	512	
12	0	0	0	0	463	512	
13	0	0	0	0	444	511	
14	0	0	0	0	451	512	
15	0	0	0	0	468	513	
0	0	0	0	0	491	512	
1	0	0	0	0	526	510	
2	0	0	0	0	544	510	
3	0	0	0	0	565	511	
4	0	0	0	0	561	509	
5	0	0	0	0	564	510	
6	0	0	0	0	545	509	
7	0	0	0	0	515	510	
8	0	0	0	0	490	511	
9	0	0	0	0	473	512	
10	0	0	0	0	478	512	
11	0	0	0	0	477	512	
12	0	0	0	0	479	509	
13	0	0	0	0	494	510	
14	0	0	0	0	500	511	
15	0	0	0	0	500	510	
0	0	0	0	0	501	509	
1	0	0	0	0	525	510	
2	0	0	0	0	558	509	
3	0	0	0	0	582	509	
4	0	0	0	0	579	509	
5	0	0	0	0	543	508	
6	0	0	0	0	500	512	
7	0	0	0	0	461	514	
8	0	0	0	0	441	510	
9	0	0	0	0	446	511	
10	0	0	0	0	462	510	
11	0	0	0	0	492	510	
12	0	0	0	0	524	510	
13	0	0	0	0	539	510	
14	0	0	0	0	542	511	
15	0	0	0	0	535	509	
0	0	0	0	0	527	511	
1	0	0	0	0	529	508	
2	0	0	0	0	531	508	
3	0	0	0	0	516	510	
4	0	0	0	0	500	510	
5	0	0	0	0	485	510	
6	0	0	0	0	475	511	
7	0	0	0	0	479	511	
8	0	0	0	0	494	511	
9	0	0	0	0	518	510	
10	0	0	0	0	551	510	
11	0	0	0	0	565	510	
12	0	0	0	0	551	511	
13	0	0	0	0	529	508	
14	0	0	0	0	512	511	
15	0	0	0	0	503	511	
0	0	0	0	0	503	509	
1	0	0	0	0	508	512	
2	0	0	0	0	522	512	
3	0	0	0	0	527	510	
4	0	0	0	0	515	509	
5	0	0	0	0	493	510	
6	0	0	0	0	472	510	
7	0	0	0	0	468	509	
8	0	0	0	0	462	509	
9	0	0	0	0	462	512	
10	0	0	0	0	486	511	
11	0	0	0	0	508	511	
12	0	0	0	0	508	511	
13	0	0	0	0	512	507	
14	0	0	0	0	521	511	
15	0	0	0	0	528	510	
0	0	0	0	0	541	510	
1	0	0	0	0	545	510	
2	0	0	0	0	537	512	
3	0	0	0	0	531	510	
4	0	0	0	0	530	510	
5	0	0	0	0	522	512	
6	0	0	0	0	503	511	
7	0	0	0	0	485	510	
8	0	0	0	0	493	507	
9	0	0	0	0	503	512	
10	0	0	0	0	518	508	
11	0	0	0	0	533	510	
12	0	0	0	0	543	509	
13	0	0	0	0	548	508	
14	0	0	0	0	537	509	
15	0	0	0	0	540	512	
0	0	0	0	0	536	510	
1	0	0	0	0	511	508	
2	0	0	0	0	477	511	
3	0	0	0	0	443	510	
4	0	0	0	0	423	511	
5	0	0	0	0	429	512	
6	0	0	0	0	446	512	
7	0	0	0	0	464	509	
8	0	0	0	0	494	512	
9	0	0	0	0	519	510	
10	0	0	0	0	540	511	
11	0	0	0	0	544	508	
12	0	0	0	0	544	510	
13	0	0	0	0	543	512	
14	0	0	0	0	550	510	
15	0	0	0	0	558	510	
0	0	0	0	0	575	512	
1	0	0	0	0	581	510	
2	0	0	0	0	556	510	
3	0	0	0	0	523	509	
4	0	0	0	0	496	509	
5	0	0	0	0	467	509	
6	0	0	0	0	451	510	
7	0	0	0	0	437	510	
8	0	0	0	0	462	509	
9	0	0	0	0	485	512	
10	0	0	0	0	515	509	
11	0	0	0	0	539	509	
12	0	0	0	0	540	509	
13	0	0	0	0	540	511	
14	0	0	0	0	532	512	
15	0	0	0	0	508	511	
0	0	0	0	0	486	512	
1	0	0	0	0	477	510	
2	0	0	0	0	490	511	
3	0	0	0	0	505	509	
4	0	0	0	0	518	508	
5	0	0	0	0	533	511	
6	0	0	0	0	550	510	
7	0	0	0	0	552	512	
8	0	0	0	0	536	511	
9	0	0	0	0	508	509	
10	0	0	0	0	493	510	
11	0	0	0	0	478	512	
12	0	0	0	0	463	509	
13	0	0	0	0	472	510	
14	0	0	0	0	485	512	
15	0	0	0	0	498	511	
0	0	0	0	0	517	510	
1	0	0	0	0	526	513	
2	0	0	0	0	542	511	
3	0	0	0	0	544	511	
4	0	0	0	0	525	511	
5	0	0	0	0	511	508	
6	0	0	0	0	508	509	
7	0	0	0	0	505	510	
8	0	0	0	0	508	511	
9	0	0	0	0	515	509	
10	0	0	0	0	535	510	
11	0	0	0	0	540	512	
12	0	0	0	0	532	511	
13	0	0	0	0	506	511	
14	0	0	0	0	490	511	
15	0	0	0	0	510	511	
0	0	0	0	0	518	511	
1	0	0	0	0	511	513	
2	0	0	0	0	511	512	
3	0	0	0	0	536	512	
4	0	0	0	0	519	510	
5	0	0	0	0	477	511	
6	0	0	0	0	443	510	
7	0	0	0	0	442	510	
8	0	0	0	0	446	509	
9	0	0	0	0	467	511	
10	0	0	0	0	486	510	
11	0	0	0	0	504	509	
12	0	0	0	0	528	509	
13	0	0	0	0	543	512	
14	0	0	0	0	547	510	
15	0	0	0	0	547	510	
0	0	0	0	0	544	509	
1	0	0	0	0	539	511	
2	0	0	0	0	535	509	
3	0	0	0	0	533	511	
4	0	0	0	0	535	509	
5	0	0	0	0	551	512	
6	0	0	0	0	560	513	
7	0	0	0	0	539	512	
8	0	0	0	0	507	511	
9	0	0	0	0	489	513	
10	0	0	0	0	471	512	
11	0	0	0	0	452	509	
12	0	0	0	0	448	508	
13	0	0	0	0	472	512	
14	0	0	0	0	499	509	
15	0	0	0	0	517	509	
0	0	0	0	0	521	511	
1	0	0	0	0	518	513	
2	0	0	0	0	516	508	
3	0	0	0	0	519	510	
4	0	0	0	0	531	509	
5	0	0	0	0	557	511	
6	0	0	0	0	559	510	
7	0	0	0	0	545	509	
8	0	0	0	0	522	511	
9	0	0	0	0	500	509	
10	0	0	0	0	487	511	
11	0	0	0	0	464	509	
12	0	0	0	0	459	508	
13	0	0	0	0	479	511	
14	0	0	0	0	507	512	
15	0	0	0	0	525	509	
0	0	0	0	0	540	510	
1	0	0	0	0	541	510	
2	0	0	0	0	540	508	
3	0	0	0	0	524	510	
4	0	0	0	0	505	511	
5	0	0	0	0	498	511	
6	0	0	0	0	487	511	
7	0	0	0	0	492	511	
8	0	0	0	0	532	513	
9	0	0	0	0	545	508	
10	0	0	0	0	533	511	
11	0	0	0	0	536	510	
12	0	0	0	0	520	510	
13	0	0	0	0	492	507	
14	0	0	0	0	468	510	
15	0	0	0	0	452	511	
0	0	0	0	0	460	512	
1	0	0	0	0	500	512	
2	0	0	0	0	508	510	
3	0	0	0	0	511	512	
4	0	0	0	0	496	511	
5	0	0	0	0	489	510	
6	0	0	0	0	492	509	
7	0	0	0	0	513	511	
8	0	0	0	0	531	510	
9	0	0	0	0	537	510	
10	0	0	0	0	545	511	
11	0	0	0	0	534	511	
12	0	0	0	0	514	510	
13	0	0	0	0	506	511	
14	0	0	0	0	485	509	
15	0	0	0	0	479	510	
0	0	0	0	0	492	509	
1	0	0	0	0	507	510	
2	0	0	0	0	520	511	
3	0	0	0	0	519	511	
4	0	0	0	0	525	512	
5	0	0	0	0	536	510	
6	0	0	0	0	534	511	
7	0	0	0	0	531	511	
8	0	0	0	0	523	510	
9	0	0	0	0	513	510	
10	0	0	0	0	496	509	
11	0	0	0	0	489	511	
12	0	0	0	0	487	513	
13	0	0	0	0	499	509	
14	0	0	0	0	527	512	
15	0	0	0	0	537	509	
0	0	0	0	0	537	509	
1	0	0	0	0	538	510	
2	0	0	0	0	540	508	
3	0	0	0	0	532	512	
4	0	0	0	0	518	510	
5	0	0	0	0	504	512	
6	0	0	0	0	489	511	
7	0	0	0	0	474	512	
8	0	0	0	0	459	510	
9	0	0	0	0	459	512	
10	0	0	0	0	468	509	
11	0	0	0	0	494	511	
12	0	0	0	0	522	509	
13	0	0	0	0	536	508	
14	0	0	0	0	544	511	
15	0	0	0	0	538	509	
0	0	0	0	0	528	511	
1	0	0	0	0	525	508	
2	0	0	0	0	534	510	
3	0	0	0	0	537	511	
4	0	0	0	0	531	513	
5	0	0	0	0	527	511	
6	0	0	0	0	517	510	
7	0	0	0	0	500	510	
8	0	0	0	0	485	513	
9	0	0	0	0	484	511	
10	0	0	0	0	483	510	
11	0	0	0	0	502	511	
12	0	0	0	0	509	510	
13	0	0	0	0	503	511	
14	0	0	0	0	500	511	
15	0	0	0	0	499	509	
0	0	0	0	0	504	509	
1	0	0	0	0	505	510	
2	0	0	0	0	502	508	
3	0	0	0	0	504	509	
4	0	0	0	0	511	511	
5	0	0	0	0	515	512	
6	0	0	0	0	520	509	
7	0	0	0	0	521	512	
8	0	0	0	0	525	509	
9	0	0	0	0	529	509	
10	0	0	0	0	537	509	
11	0	0	0	0	546	510	
12	0	0	0	0	545	512	
13	0	0	0	0	543	512	
14	0	0	0	0	527	509	
15	0	0	0	0	501	509	
0	0	0	0	0	473	511	
1	0	0	0	0	451	511	
2	0	0	0	0	452	510	
3	0	0	0	0	452	510	
4	0	0	0	0	470	509	
5	0	0	0	0	511	509	
6	0	0	0	0	537	509	
7	0	0	0	0	549	511	
8	0	0	0	0	543	512	
9	0	0	0	0	517	511	
10	0	0	0	0	502	510	
11	0	0	0	0	491	512	
12	0	0	0	0	502	510	
13	0	0	0	0	531	510	
14	0	0	0	0	564	509	
15	0	0	0	0	554	510	
0	0	0	0	0	532	507	
1	0	0	0	0	509	510	
2	0	0	0	0	478	509	
3	0	0	0	0	455	510	
4	0	0	0	0	450	510	
5	0	0	0	0	459	511	
6	0	0	0	0	475	511	
7	0	0	0	0	490	510	
8	0	0	0	0	516	513	
9	0	0	0	0	531	509	
10	0	0	0	0	532	510	
11	0	0	0	0	533	511	
12	0	0	0	0	530	510	
13	0	0	0	0	528	510	
14	0	0	0	0	522	509	
15	0	0	0	0	521	509	
0	0	0	0	0	518	513	
1	0	0	0	0	519	510	
2	0	0	0	0	517	509	
3	0	0	0	0	520	511	
4	0	0	0	0	520	512	
5	0	0	0	0	524	511	
6	0	0	0	0	527	510	
7	0	0	0	0	524	509	
8	0	0	0	0	528	509	
9	0	0	0	0	523	509	
10	0	0	0	0	517	511	
11	0	0	0	0	507	511	
12	0	0	0	0	501	511	
13	0	0	0	0	504	510	
14	0	0	0	0	512	512	
15	0	0	0	0	519	510	
0	0	0	0	0	518	510	
1	0	0	0	0	513	510	
2	0	0	0	0	507	511	
3	0	0	0	0	489	510	
4	0	0	0	0	478	510	
5	0	0	0	0	487	512	
6	0	0	0	0	499	511	
7	0	0	0	0	508	510	
8	0	0	0	0	512	510	
9	0	0	0	0	511	510	
10	0	0	0	0	508	511	
11	0	0	0	0	507	509	
12	0	0	0	0	508	511	
13	0	0	0	0	503	511	
14	0	0	0	0	506	511	
15	0	0	0	0	507	508	
0	0	0	0	0	511	510	
1	0	0	0	0	540	509	
2	0	0	0	0	559	507	
3	0	0	0	0	547	512	
4	0	0	0	0	551	510	
5	0	0	0	0	549	512	
6	0	0	0	0	515	512	
7	0	0	0	0	474	511	
8	0	0	0	0	447	512	
9	0	0	0	0	452	513	
10	0	0	0	0	484	512	
11	0	0	0	0	490	512	
12	0	0	0	0	480	511	
13	0	0	0	0	492	510	
14	0	0	0	0	508	507	
15	0	0	0	0	503	510	
0	0	0	0	0	492	510	
1	0	0	0	0	487	510	
2	0	0	0	0	501	510	
3	0	0	0	0	514	508	
4	0	0	0	0	536	511	
5	0	0	0	0	564	509	
6	0	0	0	0	565	510	
7	0	0	0	0	555	508	
8	0	0	0	0	536	511	
9	0	0	0	0	519	512	
10	0	0	0	0	501	513	
11	0	0	0	0	490	513	
12	0	0	0	0	493	514	
13	0	0	0	0	500	511	
14	0	0	0	0	507	512	
15	0	0	0	0	517	515	
0	0	0	0	0	520	511	
1	0	0	0	0	525	512	
2	0	0	0	0	523	508	
3	0	0	0	0	547	511	
4	0	0	0	0	534	511	
5	0	0	0	0	511	513	
6	0	0	0	0	505	510	
7	0	0	0	0	495	512	
8	0	0	0	0	486	514	
9	0	0	0	0	496	514	
10	0	0	0	0	525	516	
11	0	0	0	0	523	514	
12	0	0	0	0	504	513	
13	0	0	0	0	483	510	
14	0	0	0	0	463	512	
15	0	0	0	0	447	511	
0	0	0	0	0	443	510	
1	0	0	0	0	457	508	
2	0	0	0	0	483	506	
3	0	0	0	0	513	507	
4	0	0	0	0	531	502	
5	0	0	0	0	547	503	
6	0	0	0	0	558	503	
7	0	0	0	0	562	505	
8	0	0	0	0	553	505	
9	0	0	0	0	535	505	
10	0	0	0	0	529	506	
11	0	0	0	0	536	506	
12	0	0	0	0	528	506	
13	0	0	0	0	510	508	
14	0	0	0	0	494	506	
15	0	0	0	0	489	505	
0	0	0	0	0	497	505	
1	0	0	0	0	498	508	
2	0	0	0	0	504	507	
3	0	0	0	0	511	509	
4	0	0	0	0	506	507	
5	0	0	0	0	506	510	
6	0	0	0	0	529	510	
7	0	0	0	0	532	511	
8	0	0	0	0	525	511	
9	0	0	0	0	513	513	
10	0	0	0	0	500	514	
11	0	0	0	0	487	513	
12	0	0	0	0	473	514	
13	0	0	0	0	480	511	
14	0	0	0	0	489	514	
15	0	0	0	0	501	513	
0	0	0	0	0	519	512	
1	0	0	0	0	527	510	
2	0	0	0	0	526	512	
3	0	0	0	0	525	512	
4	0	0	0	0	522	511	
5	0	0	0	0	518	513	
6	0	0	0	0	516	513	
7	0	0	0	0	520	511	
8	0	0	0	0	519	508	
9	0	0	0	0	519	510	
10	0	0	0	0	523	510	
11	0	0	0	0	525	510	
12	0	0	0	0	532	511	
13	0	0	0	0	556	510	
14	0	0	0	0	567	513	
15	0	0	0	0	547	512	
0	0	0	0	0	516	511	
1	0	0	0	0	489	511	
2	0	0	0	0	458	512	
3	0	0	0	0	440	514	
4	0	0	0	0	435	512	
5	0	0	0	0	452	510	
6	0	0	0	0	487	512	
7	0	0	0	0	521	510	
8	0	0	0	0	534	511	
9	0	0	0	0	531	513	
10	0	0	0	0	523	511	
11	0	0	0	0	524	511	
12	0	0	0	0	509	511	
13	0	0	0	0	498	511	
14	0	0	0	0	509	509	
15	0	0	0	0	533	510	
0	0	0	0	0	530	510	
1	0	0	0	0	513	509	
2	0	0	0	0	494	511	
3	0	0	0	0	491	510	
4	0	0	0	0	499	511	
5	0	0	0	0	502	509	
6	0	0	0	0	502	510	
7	0	0	0	0	508	509	
8	0	0	0	0	522	511	
9	0	0	0	0	526	510	
10	0	0	0	0	520	510	
11	0	0	0	0	516	511	
12	0	0	0	0	513	513	
13	0	0	0	0	513	511	
14	0	0	0	0	511	509	
15	0	0	0	0	521	508	
0	0	0	0	0	523	509	
1	0	0	0	0	528	510	
2	0	0	0	0	531	511	
3	0	0	0	0	527	508	
4	0	0	0	0	519	509	
5	0	0	0	0	504	511	
6	0	0	0	0	483	511	
7	0	0	0	0	471	511	
8	0	0	0	0	472	510	
9	0	0	0	0	491	508	
10	0	0	0	0	510	511	
11	0	0	0	0	518	511	
12	0	0	0	0	531	509	
13	0	0	0	0	535	509	
14	0	0	0	0	525	509	
15	0	0	0	0	511	508	
0	0	0	0	0	499	510	
1	0	0	0	0	504	510	
2	0	0	0	0	516	512	
3	0	0	0	0	521	508	
4	0	0	0	0	512	511	
5	0	0	0	0	521	511	
6	0	0	0	0	523	509	
7	0	0	0	0	518	510	
8	0	0	0	0	512	511	
9	0	0	0	0	513	510	
10	0	0	0	0	504	511	
11	0	0	0	0	496	513	
12	0	0	0	0	481	511	
13	0	0	0	0	480	512	
14	0	0	0	0	476	512	
15	0	0	0	0	479	513	
0	0	0	0	0	497	510	
1	0	0	0	0	515	510	
2	0	0	0	0	530	507	
3	0	0	0	0	530	511	
4	0	0	0	0	524	509	
5	0	0	0	0	519	512	
6	0	0	0	0	518	511	
7	0	0	0	0	521	510	
8	0	0	0	0	529	510	
9	0	0	0	0	520	509	
10	0	0	0	0	511	510	
11	0	0	0	0	499	509	
12	0	0	0	0	508	511	
13	0	0	0	0	518	507	
14	0	0	0	0	519	509	
15	0	0	0	0	519	509	
0	0	0	0	0	517	508	
1	0	0	0	0	518	510	
2	0	0	0	0	513	510	
3	0	0	0	0	532	510	
4	0	0	0	0	572	512	
5	0	0	0	0	567	511	
6	0	0	0	0	554	510	
7	0	0	0	0	515	510	
8	0	0	0	0	465	511	
9	0	0	0	0	435	510	
10	0	0	0	0	416	510	
11	0	0	0	0	427	511	
12	0	0	0	0	452	511	
13	0	0	0	0	496	508	
14	0	0	0	0	527	510	
15	0	0	0	0	549	510	
0	0	0	0	0	556	512	
1	0	0	0	0	533	509	
2	0	0	0	0	511	509	
3	0	0	0	0	502	510	
4	0	0	0	0	500	511	
5	0	0	0	0	510	511	
6	0	0	0	0	521	509	
7	0	0	0	0	519	511	
8	0	0	0	0	512	510	
9	0	0	0	0	504	510	
10	0	0	0	0	497	511	
11	0	0	0	0	497	509	
12	0	0	0	0	499	510	
13	0	0	0	0	502	509	
14	0	0	0	0	512	512	
15	0	0	0	0	530	512	
0	0	0	0	0	545	510	
1	0	0	0	0	554	512	
2	0	0	0	0	543	507	
3	0	0	0	0	531	510	
4	0	0	0	0	516	510	
5	0	0	0	0	511	509	
6	0	0	0	0	519	509	
7	0	0	0	0	510	511	
8	0	0	0	0	504	511	
9	0	0	0	0	489	511	
10	0	0	0	0	479	510	
11	0	0	0	0	476	511	
12	0	0	0	0	477	510	
13	0	0	0	0	482	508	
14	0	0	0	0	495	509	
15	0	0	0	0	516	509	
0	0	0	0	0	531	510	
1	0	0	0	0	537	509	
2	0	0	0	0	540	511	
3	0	0	0	0	531	510	
4	0	0	0	0	517	511	
5	0	0	0	0	503	511	
6	0	0	0	0	501	510	
7	0	0	0	0	501	510	
8	0	0	0	0	496	511	
9	0	0	0	0	514	510	
10	0	0	0	0	524	509	
11	0	0	0	0	520	512	
12	0	0	0	0	511	512	
13	0	0	0	0	504	509	
14	0	0	0	0	528	511	
15	0	0	0	0	581	508	
0	0	0	0	0	573	508	
1	0	0	0	0	534	508	
2	0	0	0	0	496	512	
3	0	0	0	0	466	511	
4	0	0	0	0	449	510	
5	0	0	0	0	432	513	
6	0	0	0	0	442	512	
7	0	0	0	0	464	511	
8	0	0	0	0	513	511	
9	0	0	0	0	550	510	
10	0	0	0	0	551	508	
11	0	0	0	0	569	509	
12	0	0	0	0	588	509	
13	0	0	0	0	557	512	
14	0	0	0	0	527	510	
15	0	0	0	0	487	512	
0	0	0	0	0	446	509	
1	0	0	0	0	425	512	
2	0	0	0	0	421	510	
3	0	0	0	0	440	509	
4	0	0	0	0	475	511	
5	0	0	0	0	512	510	
6	0	0	0	0	531	512	
7	0	0	0	0	539	508	
8	0	0	0	0	540	510	
9	0	0	0	0	540	513	
10	0	0	0	0	538	512	
11	0	0	0	0	539	511	
12	0	0	0	0	539	511	
13	0	0	0	0	539	511	
14	0	0	0	0	535	508	
15	0	0	0	0	524	511	
0	0	0	0	0	517	512	
1	0	0	0	0	509	507	
2	0	0	0	0	501	509	
3	0	0	0	0	501	508	
4	0	0	0	0	511	509	
5	0	0	0	0	520	511	
6	0	0	0	0	523	510	
7	0	0	0	0	528	511	
8	0	0	0	0	527	513	
9	0	0	0	0	528	511	
10	0	0	0	0	516	509	
11	0	0	0	0	500	510	
12	0	0	0	0	487	511	
13	0	0	0	0	478	510	
14	0	0	0	0	481	510	
15	0	0	0	0	491	510	
0	0	0	0	0	505	509	
1	0	0	0	0	522	509	
2	0	0	0	0	523	508	
3	0	0	0	0	520	509	
4	0	0	0	0	517	511	
5	0	0	0	0	513	512	
6	0	0	0	0	523	508	
7	0	0	0	0	521	511	
8	0	0	0	0	524	512	
9	0	0	0	0	513	509	
10	0	0	0	0	486	510	
11	0	0	0	0	464	509	
12	0	0	0	0	462	510	
13	0	0	0	0	475	510	
14	0	0	0	0	493	510	
15	0	0	0	0	505	510	
0	0	0	0	0	519	510	
1	0	0	0	0	525	509	
2	0	0	0	0	526	510	
3	0	0	0	0	524	511	
4	0	0	0	0	518	510	
5	0	0	0	0	523	510	
6	0	0	0	0	528	511	
7	0	0	0	0	528	511	
8	0	0	0	0	524	511	
9	0	0	0	0	516	507	
10	0	0	0	0	514	511	
11	0	0	0	0	515	510	
12	0	0	0	0	519	509	
13	0	0	0	0	523	508	
14	0	0	0	0	540	510	
15	0	0	0	0	544	511	
0	0	0	0	0	537	511	
1	0	0	0	0	512	509	
2	0	0	0	0	501	510	
3	0	0	0	0	498	511	
4	0	0	0	0	501	510	
5	0	0	0	0	492	510	
6	0	0	0	0	473	510	
7	0	0	0	0	461	512	
8	0	0	0	0	462	511	
9	0	0	0	0	476	511	
10	0	0	0	0	487	511	
11	0	0	0	0	503	511	
12	0	0	0	0	521	511	
13	0	0	0	0	541	511	
14	0	0	0	0	536	511	
15	0	0	0	0	524	509	
0	0	0	0	0	512	512	
1	0	0	0	0	516	510	
2	0	0	0	0	515	510	
3	0	0	0	0	505	510	
4	0	0	0	0	500	511	
5	0	0	0	0	497	509	
6	0	0	0	0	498	511	
7	0	0	0	0	496	511	
8	0	0	0	0	494	511	
9	0	0	0	0	505	509	
10	0	0	0	0	531	509	
11	0	0	0	0	551	508	
12	0	0	0	0	546	512	
13	0	0	0	0	537	511	
14	0	0	0	0	525	506	
15	0	0	0	0	519	509	
0	0	0	0	0	527	510	
1	0	0	0	0	524	510	
2	0	0	0	0	522	512	
3	0	0	0	0	511	513	
4	0	0	0	0	498	511	
5	0	0	0	0	487	510	
6	0	0	0	0	475	511	
7	0	0	0	0	471	511	
8	0	0	0	0	486	510	
9	0	0	0	0	502	509	
10	0	0	0	0	509	511	
11	0	0	0	0	515	509	
12	0	0	0	0	518	511	
13	0	0	0	0	517	510	
14	0	0	0	0	517	511	
15	0	0	0	0	514	511	
0	0	0	0	0	513	509	
1	0	0	0	0	518	511	
2	0	0	0	0	522	512	
3	0	0	0	0	531	512	
4	0	0	0	0	533	511	
5	0	0	0	0	527	510	
6	0	0	0	0	512	510	
7	0	0	0	0	498	508	
8	0	0	0	0	497	510	
9	0	0	0	0	498	510	
10	0	0	0	0	498	511	
11	0	0	0	0	505	508	
12	0	0	0	0	511	508	
13	0	0	0	0	527	510	
14	0	0	0	0	548	510	
15	0	0	0	0	559	512	
0	0	0	0	0	555	511	
1	0	0	0	0	543	510	
2	0	0	0	0	552	510	
3	0	0	0	0	534	512	
4	0	0	0	0	484	510	
5	0	0	0	0	435	510	
6	0	0	0	0	422	511	
7	0	0	0	0	436	511	
8	0	0	0	0	451	511	
9	0	0	0	0	461	508	
10	0	0	0	0	483	511	
11	0	0	0	0	501	512	
12	0	0	0	0	518	511	
13	0	0	0	0	529	510	
14	0	0	0	0	531	508	
15	0	0	0	0	534	511	
0	0	0	0	0	550	511	
1	0	0	0	0	564	510	
2	0	0	0	0	542	510	
3	0	0	0	0	513	510	
4	0	0	0	0	502	510	
5	0	0	0	0	499	507	
6	0	0	0	0	492	510	
7	0	0	0	0	492	507	
8	0	0	0	0	502	512	
9	0	0	0	0	527	511	
10	0	0	0	0	553	510	
11	0	0	0	0	574	509	
12	0	0	0	0	562	512	
13	0	0	0	0	537	509	
14	0	0	0	0	511	511	
15	0	0	0	0	484	511	
0	0	0	0	0	456	512	
1	0	0	0	0	438	510	
2	0	0	0	0	440	510	
3	0	0	0	0	461	510	
4	0	0	0	0	479	511	
5	0	0	0	0	502	508	
6	0	0	0	0	517	509	
7	0	0	0	0	525	510	
8	0	0	0	0	530	511	
9	0	0	0	0	536	511	
10	0	0	0	0	537	512	
11	0	0	0	0	537	510	
12	0	0	0	0	538	510	
13	0	0	0	0	543	509	
14	0	0	0	0	546	510	
15	0	0	0	0	538	510	
0	0	0	0	0	530	511	
1	0	0	0	0	508	510	
2	0	0	0	0	495	508	
3	0	0	0	0	479	511	
4	0	0	0	0	463	509	
5	0	0	0	0	473	511	
6	0	0	0	0	491	509	
7	0	0	0	0	507	511	
8	0	0	0	0	528	511	
9	0	0	0	0	532	512	
10	0	0	0	0	524	512	
11	0	0	0	0	516	510	
12	0	0	0	0	505	509	
13	0	0	0	0	494	510	
14	0	0	0	0	493	511	
15	0	0	0	0	500	510	
0	0	0	0	0	513	510	
1	0	0	0	0	524	512	
2	0	0	0	0	531	509	
3	0	0	0	0	528	510	
4	0	0	0	0	520	509	
5	0	0	0	0	513	512	
6	0	0	0	0	510	510	
7	0	0	0	0	505	511	
8	0	0	0	0	503	512	
9	0	0	0	0	512	512	
10	0	0	0	0	515	510	
11	0	0	0	0	513	510	
12	0	0	0	0	517	509	
13	0	0	0	0	521	510	
14	0	0	0	0	519	509	
15	0	0	0	0	511	510	
0	0	0	0	0	504	510	
1	0	0	0	0	524	510	
2	0	0	0	0	515	510	
3	0	0	0	0	504	509	
4	0	0	0	0	494	510	
5	0	0	0	0	492	511	
6	0	0	0	0	496	511	
7	0	0	0	0	483	509	
8	0	0	0	0	483	510	
9	0	0	0	0	498	509	
10	0	0	0	0	516	510	
11	0	0	0	0	523	510	
12	0	0	0	0	524	512	
13	0	0	0	0	520	511	
14	0	0	0	0	519	510	
15	0	0	0	0	511	511	
0	0	0	0	0	505	509	
1	0	0	0	0	501	512	
2	0	0	0	0	499	510	
3	0	0	0	0	511	508	
4	0	0	0	0	526	510	
5	0	0	0	0	531	510	
6	0	0	0	0	534	512	
7	0	0	0	0	545	511	
8	0	0	0	0	544	512	
9	0	0	0	0	528	511	
10	0	0	0	0	510	510	
11	0	0	0	0	498	510	
12	0	0	0	0	493	513	
13	0	0	0	0	487	512	
14	0	0	0	0	471	510	
15	0	0	0	0	476	508	
0	0	0	0	0	491	512	
1	0	0	0	0	494	512	
2	0	0	0	0	497	511	
3	0	0	0	0	506	511	
4	0	0	0	0	515	512	
5	0	0	0	0	521	508	
6	0	0	0	0	521	507	
7	0	0	0	0	517	508	
8	0	0	0	0	522	510	
9	0	0	0	0	527	509	
10	0	0	0	0	521	511	
11	0	0	0	0	518	510	
12	0	0	0	0	511	511	
13	0	0	0	0	508	511	
14	0	0	0	0	505	512	
15	0	0	0	0	507	511	
0	0	0	0	0	521	510	
1	0	0	0	0	521	509	
2	0	0	0	0	522	511	
3	0	0	0	0	534	510	
4	0	0	0	0	539	511	
5	0	0	0	0	527	511	
6	0	0	0	0	509	510	
7	0	0	0	0	503	510	
8	0	0	0	0	510	510	
9	0	0	0	0	497	513	
10	0	0	0	0	488	511	
11	0	0	0	0	480	510	
12	0	0	0	0	486	512	
13	0	0	0	0	493	511	
14	0	0	0	0	500	512	
15	0	0	0	0	495	513	
0	0	0	0	0	505	509	
1	0	0	0	0	515	509	
2	0	0	0	0	528	508	
3	0	0	0	0	540	507	
4	0	0	0	0	538	510	
5	0	0	0	0	527	511	
6	0	0	0	0	508	512	
7	0	0	0	0	498	511	
8	0	0	0	0	496	508	
9	0	0	0	0	494	510	
10	0	0	0	0	489	511	
11	0	0	0	0	497	510	
12	0	0	0	0	512	508	
13	0	0	0	0	526	512	
14	0	0	0	0	531	511	
15	0	0	0	0	530	509	
0	0	0	0	0	533	513	
1	0	0	0	0	553	509	
2	0	0	0	0	568	510	
3	0	0	0	0	569	511	
4	0	0	0	0	537	512	
5	0	0	0	0	505	511	
6	0	0	0	0	472	511	
7	0	0	0	0	441	512	
8	0	0	0	0	423	510	
9	0	0	0	0	428	511	
10	0	0	0	0	451	510	
11	0	0	0	0	495	508	
12	0	0	0	0	544	509	
13	0	0	0	0	564	509	
14	0	0	0	0	555	510	
15	0	0	0	0	533	512	
0	0	0	0	0	511	511	
1	0	0	0	0	491	511	
2	0	0	0	0	473	511	
3	0	0	0	0	469	510	
4	0	0	0	0	485	512	
5	0	0	0	0	502	512	
6	0	0	0	0	519	510	
7	0	0	0	0	531	512	
8	0	0	0	0	541	509	
9	0	0	0	0	546	509	
10	0	0	0	0	546	509	
11	0	0	0	0	556	508	
12	0	0	0	0	556	509	
13	0	0	0	0	533	510	
14	0	0	0	0	504	511	
15	0	0	0	0	483	511	
0	0	0	0	0	480	511	
1	0	0	0	0	465	511	
2	0	0	0	0	461	511	
3	0	0	0	0	476	510	
4	0	0	0	0	494	510	
5	0	0	0	0	518	509	
6	0	0	0	0	530	509	
7	0	0	0	0	545	509	
8	0	0	0	0	554	510	
9	0	0	0	0	553	509	
10	0	0	0	0	544	510	
11	0	0	0	0	526	512	
12	0	0	0	0	511	512	
13	0	0	0	0	490	511	
14	0	0	0	0	480	513	
15	0	0	0	0	470	512	
0	0	0	0	0	467	510	
1	0	0	0	0	480	508	
2	0	0	0	0	503	511	
3	0	0	0	0	526	510	
4	0	0	0	0	540	512	
5	0	0	0	0	547	511	
6	0	0	0	0	562	510	
7	0	0	0	0	580	507	
8	0	0	0	0	559	512	
9	0	0	0	0	510	511	
10	0	0	0	0	464	510	
11	0	0	0	0	437	511	
12	0	0	0	0	428	510	
13	0	0	0	0	432	512	
14	0	0	0	0	452	510	
15	0	0	0	0	480	509	
0	0	0	0	0	510	510	
1	0	0	0	0	532	510	
2	0	0	0	0	537	510	
3	0	0	0	0	542	509	
4	0	0	0	0	543	510	
5	0	0	0	0	541	509	
6	0	0	0	0	541	511	
7	0	0	0	0	542	512	
8	0	0	0	0	528	510	
9	0	0	0	0	518	509	
10	0	0	0	0	508	511	
11	0	0	0	0	503	511	
12	0	0	0	0	504	509	
13	0	0	0	0	510	512	
14	0	0	0	0	518	510	
15	0	0	0	0	519	510	
0	0	0	0	0	508	511	
1	0	0	0	0	502	513	
2	0	0	0	0	500	512	
3	0	0	0	0	504	510	
4	0	0	0	0	504	511	
5	0	0	0	0	503	511	
6	0	0	0	0	510	509	
7	0	0	0	0	514	508	
8	0	0	0	0	519	511	
9	0	0	0	0	534	509	
10	0	0	0	0	535	511	
11	0	0	0	0	524	510	
12	0	0	0	0	509	510	
13	0	0	0	0	493	512	
14	0	0	0	0	480	511	
15	0	0	0	0	479	511	
0	0	0	0	0	480	510	
1	0	0	0	0	488	510	
2	0	0	0	0	507	508	
3	0	0	0	0	521	510	
4	0	0	0	0	523	510	
5	0	0	0	0	516	510	
6	0	0	0	0	511	510	
7	0	0	0	0	507	510	
8	0	0	0	0	512	510	
9	0	0	0	0	517	510	
10	0	0	0	0	518	511	
11	0	0	0	0	524	511	
12	0	0	0	0	542	511	
13	0	0	0	0	546	510	
14	0	0	0	0	544	512	
15	0	0	0	0	535	511	
0	0	0	0	0	516	511	
1	0	0	0	0	501	509	
2	0	0	0	0	489	510	
3	0	0	0	0	474	510	
4	0	0	0	0	465	510	
5	0	0	0	0	481	512	
6	0	0	0	0	496	510	
7	0	0	0	0	512	510	
8	0	0	0	0	518	510	
9	0	0	0	0	529	513	
10	0	0	0	0	539	508	
11	0	0	0	0	537	511	
12	0	0	0	0	527	510	
13	0	0	0	0	512	510	
14	0	0	0	0	508	510	
15	0	0	0	0	497	510	
0	0	0	0	0	484	511	
1	0	0	0	0	487	507	
2	0	0	0	0	496	509	
3	0	0	0	0	502	511	
4	0	0	0	0	505	513	
5	0	0	0	0	504	513	
6	0	0	0	0	513	511	
7	0	0	0	0	525	509	
8	0	0	0	0	528	510	
9	0	0	0	0	529	509	
10	0	0	0	0	523	511	
11	0	0	0	0	513	510	
12	0	0	0	0	511	511	
13	0	0	0	0	516	510	
14	0	0	0	0	508	511	
15	0	0	0	0	502	510	
0	0	0	0	0	504	512	
1	0	0	0	0	502	511	
2	0	0	0	0	496	509	
3	0	0	0	0	503	510	
4	0	0	0	0	510	509	
5	0	0	0	0	511	510	
6	0	0	0	0	527	511	
7	0	0	0	0	535	508	
8	0	0	0	0	537	511	
9	0	0	0	0	523	511	
10	0	0	0	0	495	512	
11	0	0	0	0	484	512	
12	0	0	0	0	483	511	
13	0	0	0	0	488	509	
14	0	0	0	0	488	510	
15	0	0	0	0	493	511	
0	0	0	0	0	496	509	
1	0	0	0	0	503	508	
2	0	0	0	0	512	507	
3	0	0	0	0	519	508	
4	0	0	0	0	522	511	
5	0	0	0	0	521	509	
6	0	0	0	0	522	510	
7	0	0	0	0	526	511	
8	0	0	0	0	528	509	
9	0	0	0	0	534	510	
10	0	0	0	0	543	513	
11	0	0	0	0	537	511	
12	0	0	0	0	526	509	
13	0	0	0	0	520	512	
14	0	0	0	0	519	510	
15	0	0	0	0	514	511	
0	0	0	0	0	504	510	
1	0	0	0	0	488	511	
2	0	0	0	0	478	511	
3	0	0	0	0	478	510	
4	0	0	0	0	474	510	
5	0	0	0	0	474	510	
6	0	0	0	0	490	511	
7	0	0	0	0	512	511	
8	0	0	0	0	521	509	
9	0	0	0	0	520	511	
10	0	0	0	0	526	510	
11	0	0	0	0	524	512	
12	0	0	0	0	523	511	
13	0	0	0	0	532	509	
14	0	0	0	0	536	512	
15	0	0	0	0	530	510	
0	0	0	0	0	515	510	
1	0	0	0	0	509	510	
2	0	0	0	0	508	511	
3	0	0	0	0	499	511	
4	0	0	0	0	495	510	
5	0	0	0	0	505	510	
6	0	0	0	0	517	509	
7	0	0	0	0	517	510	
8	0	0	0	0	515	510	
9	0	0	0	0	511	512	
10	0	0	0	0	497	510	
11	0	0	0	0	489	511	
12	0	0	0	0	479	512	
13	0	0	0	0	483	511	
14	0	0	0	0	504	511	
15	0	0	0	0	521	510	
0	0	0	0	0	523	509	
1	0	0	0	0	527	508	
2	0	0	0	0	531	510	
3	0	0	0	0	531	510	
4	0	0	0	0	528	510	
5	0	0	0	0	518	511	
6	0	0	0	0	510	511	
7	0	0	0	0	512	510	
8	0	0	0	0	511	510	
9	0	0	0	0	502	510	
10	0	0	0	0	487	508	
11	0	0	0	0	495	511	
12	0	0	0	0	499	510	
13	0	0	0	0	508	512	
14	0	0	0	0	523	510	
15	0	0	0	0	526	513	
0	0	0	0	0	530	511	
1	0	0	0	0	514	512	
2	0	0	0	0	499	508	
3	0	0	0	0	494	509	
4	0	0	0	0	487	509	
5	0	0	0	0	491	509	
6	0	0	0	0	492	511	
7	0	0	0	0	493	511	
8	0	0	0	0	503	511	
9	0	0	0	0	516	510	
10	0	0	0	0	526	510	
11	0	0	0	0	529	510	
12	0	0	0	0	534	511	
13	0	0	0	0	529	510	
14	0	0	0	0	521	510	
15	0	0	0	0	513	510	
0	0	0	0	0	505	510	
1	0	0	0	0	507	510	
2	0	0	0	0	518	509	
3	0	0	0	0	529	509	
4	0	0	0	0	534	509	
5	0	0	0	0	529	509	
6	0	0	0	0	519	509	
7	0	0	0	0	511	512	
8	0	0	0	0	504	511	
9	0	0	0	0	498	509	
10	0	0	0	0	509	511	
11	0	0	0	0	512	509	
12	0	0	0	0	519	509	
13	0	0	0	0	507	511	
14	0	0	0	0	497	512	
15	0	0	0	0	492	511	
0	0	0	0	0	490	508	
1	0	0	0	0	491	510	
2	0	0	0	0	497	511	
3	0	0	0	0	502	512	
4	0	0	0	0	512	509	
5	0	0	0	0	513	509	
6	0	0	0	0	509	512	
7	0	0	0	0	495	511	
8	0	0	0	0	494	510	
9	0	0	0	0	497	510	
10	0	0	0	0	510	509	
11	0	0	0	0	526	510	
12	0	0	0	0	533	509	
13	0	0	0	0	531	509	
14	0	0	0	0	523	510	
15	0	0	0	0	518	511	
0	0	0	0	0	516	512	
1	0	0	0	0	512	510	
2	0	0	0	0	516	512	
3	0	0	0	0	519	512	
4	0	0	0	0	517	510	
5	0	0	0	0	512	510	
6	0	0	0	0	506	510	
7	0	0	0	0	508	511	
8	0	0	0	0	515	510	
9	0	0	0	0	510	511	
10	0	0	0	0	502	510	
11	0	0	0	0	496	511	
12	0	0	0	0	498	511	
13	0	0	0	0	501	510	
14	0	0	0	0	495	509	
15	0	0	0	0	488	511	
0	0	0	0	0	494	510	
1	0	0	0	0	504	507	
2	0	0	0	0	510	508	
3	0	0	0	0	519	511	
4	0	0	0	0	538	510	
5	0	0	0	0	565	511	
6	0	0	0	0	560	511	
7	0	0	0	0	534	510	
8	0	0	0	0	512	510	
9	0	0	0	0	501	510	
10	0	0	0	0	498	510	
11	0	0	0	0	504	511	
12	0	0	0	0	511	511	
13	0	0	0	0	504	509	
14	0	0	0	0	503	510	
15	0	0	0	0	493	512	
0	0	0	0	0	478	511	
1	0	0	0	0	477	511	
2	0	0	0	0	483	510	
3	0	0	0	0	499	511	
4	0	0	0	0	510	511	
5	0	0	0	0	507	508	
6	0	0	0	0	517	511	
7	0	0	0	0	529	512	
8	0	0	0	0	534	509	
9	0	0	0	0	543	511	
10	0	0	0	0	543	510	
11	0	0	0	0	536	509	
12	0	0	0	0	521	510	
13	0	0	0	0	512	510	
14	0	0	0	0	505	511	
15	0	0	0	0	497	511	
0	0	0	0	0	490	512	
1	0	0	0	0	487	511	
2	0	0	0	0	497	510	
3	0	0	0	0	504	511	
4	0	0	0	0	505	510	
5	0	0	0	0	504	510	
6	0	0	0	0	504	510	
7	0	0	0	0	507	509	
8	0	0	0	0	504	513	
9	0	0	0	0	496	507	
10	0	0	0	0	494	511	
11	0	0	0	0	505	511	
12	0	0	0	0	524	512	
13	0	0	0	0	538	510	
14	0	0	0	0	543	508	
15	0	0	0	0	536	510	
0	0	0	0	0	531	511	
1	0	0	0	0	527	512	
2	0	0	0	0	515	512	
3	0	0	0	0	504	512	
4	0	0	0	0	495	508	
5	0	0	0	0	485	510	
6	0	0	0	0	496	510	
7	0	0	0	0	503	512	
8	0	0	0	0	510	514	
9	0	0	0	0	514	513	
10	0	0	0	0	526	512	
11	0	0	0	0	531	513	
12	0	0	0	0	531	513	
13	0	0	0	0	523	512	
14	0	0	0	0	510	512	
15	0	0	0	0	494	511	
0	0	0	0	0	492	513	
1	0	0	0	0	497	515	
2	0	0	0	0	492	512	
3	0	0	0	0	492	513	
4	0	0	0	0	508	511	
5	0	0	0	0	516	511	
6	0	0	0	0	522	511	
7	0	0	0	0	531	511	
8	0	0	0	0	536	511	
9	0	0	0	0	524	507	
10	0	0	0	0	518	506	
11	0	0	0	0	527	505	
12	0	0	0	0	513	505	
13	0	0	0	0	499	503	
14	0	0	0	0	488	504	
15	0	0	0	0	489	504	
0	0	0	0	0	502	505	
1	0	0	0	0	507	506	
2	0	0	0	0	497	504	
3	0	0	0	0	487	507	
4	0	0	0	0	489	508	
5	0	0	0	0	500	506	
6	0	0	0	0	503	503	
7	0	0	0	0	514	505	
8	0	0	0	0	519	507	
9	0	0	0	0	517	508	
10	0	0	0	0	516	506	
11	0	0	0	0	508	509	
12	0	0	0	0	507	509	
13	0	0	0	0	506	512	
14	0	0	0	0	496	512	
15	0	0	0	0	499	511	
0	0	0	0	0	510	512	
1	0	0	0	0	517	513	
2	0	0	0	0	518	513	
3	0	0	0	0	516	513	
4	0	0	0	0	511	511	
5	0	0	0	0	522	512	
6	0	0	0	0	531	510	
7	0	0	0	0	541	514	
8	0	0	0	0	536	511	
9	0	0	0	0	537	512	
10	0	0	0	0	540	513	
11	0	0	0	0	527	512	
12	0	0	0	0	513	511	
13	0	0	0	0	496	513	
14	0	0	0	0	493	515	
15	0	0	0	0	491	513	
0	0	0	0	0	488	514	
1	0	0	0	0	486	512	
2	0	0	0	0	491	512	
3	0	0	0	0	502	512	
4	0	0	0	0	512	511	
5	0	0	0	0	528	510	
6	0	0	0	0	530	510	
7	0	0	0	0	540	512	
8	0	0	0	0	534	510	
9	0	0	0	0	518	509	
10	0	0	0	0	503	508	
11	0	0	0	0	489	510	
12	0	0	0	0	480	510	
13	0	0	0	0	486	510	
14	0	0	0	0	488	511	
15	0	0	0	0	498	511	
0	0	0	0	0	516	511	
1	0	0	0	0	523	511	
2	0	0	0	0	532	510	
3	0	0	0	0	535	511	
4	0	0	0	0	519	510	
5	0	0	0	0	507	510	
6	0	0	0	0	500	513	
7	0	0	0	0	496	513	
8	0	0	0	0	490	510	
9	0	0	0	0	489	508	
10	0	0	0	0	494	508	
11	0	0	0	0	508	509	
12	0	0	0	0	519	511	
13	0	0	0	0	541	512	
14	0	0	0	0	551	510	
15	0	0	0	0	551	508	
0	0	0	0	0	545	509	
1	0	0	0	0	529	510	
2	0	0	0	0	515	510	
3	0	0	0	0	507	511	
4	0	0	0	0	491	508	
5	0	0	0	0	478	511	
6	0	0	0	0	480	512	
7	0	0	0	0	486	509	
8	0	0	0	0	494	510	
9	0	0	0	0	497	511	
10	0	0	0	0	504	509	
11	0	0	0	0	510	510	
12	0	0	0	0	509	511	
13	0	0	0	0	507	510	
14	0	0	0	0	510	511	
15	0	0	0	0	503	510	
0	0	0	0	0	499	509	
1	0	0	0	0	499	510	
2	0	0	0	0	504	509	
3	0	0	0	0	510	511	
4	0	0	0	0	512	508	
5	0	0	0	0	507	511	
6	0	0	0	0	511	510	
7	0	0	0	0	524	510	
8	0	0	0	0	546	511	
9	0	0	0	0	553	511	
10	0	0	0	0	545	509	
11	0	0	0	0	534	511	
12	0	0	0	0	521	511	
13	0	0	0	0	527	511	
14	0	0	0	0	510	511	
15	0	0	0	0	492	511	
0	0	0	0	0	497	511	
1	0	0	0	0	487	510	
2	0	0	0	0	471	510	
3	0	0	0	0	459	511	
4	0	0	0	0	460	510	
5	0	0	0	0	476	511	
6	0	0	0	0	492	509	
7	0	0	0	0	504	510	
8	0	0	0	0	519	509	
9	0	0	0	0	532	510	
10	0	0	0	0	535	512	
11	0	0	0	0	534	509	
12	0	0	0	0	532	509	
13	0	0	0	0	527	511	
14	0	0	0	0	523	511	
15	0	0	0	0	521	511	
0	0	0	0	0	526	510	
1	0	0	0	0	533	510	
2	0	0	0	0	533	510	
3	0	0	0	0	523	510	
4	0	0	0	0	517	509	
5	0	0	0	0	511	510	
6	0	0	0	0	510	510	
7	0	0	0	0	509	511	
8	0	0	0	0	502	510	
9	0	0	0	0	495	511	
10	0	0	0	0	512	510	
11	0	0	0	0	526	510	
12	0	0	0	0	527	510	
13	0	0	0	0	518	511	
14	0	0	0	0	499	510	
15	0	0	0	0	491	511	
0	0	0	0	0	486	512	
1	0	0	0	0	485	510	
2	0	0	0	0	486	510	
3	0	0	0	0	510	508	
4	0	0	0	0	523	510	
5	0	0	0	0	521	512	
6	0	0	0	0	508	512	
7	0	0	0	0	499	511	
8	0	0	0	0	496	510	
9	0	0	0	0	499	509	
10	0	0	0	0	502	511	
11	0	0	0	0	515	510	
12	0	0	0	0	524	510	
13	0	0	0	0	521	511	
14	0	0	0	0	527	509	
15	0	0	0	0	535	509	
0	0	0	0	0	539	510	
1	0	0	0	0	536	511	
2	0	0	0	0	536	510	
3	0	0	0	0	531	511	
4	0	0	0	0	524	512	
5	0	0	0	0	504	513	
6	0	0	0	0	494	511	
7	0	0	0	0	488	512	
8	0	0	0	0	483	510	
9	0	0	0	0	477	509	
10	0	0	0	0	470	513	
11	0	0	0	0	472	511	
12	0	0	0	0	476	510	
13	0	0	0	0	486	509	
14	0	0	0	0	504	507	
15	0	0	0	0	518	509	
0	0	0	0	0	523	510	
1	0	0	0	0	528	510	
2	0	0	0	0	535	509	
3	0	0	0	0	543	511	
4	0	0	0	0	535	509	
5	0	0	0	0	526	510	
6	0	0	0	0	521	511	
7	0	0	0	0	503	513	
8	0	0	0	0	496	509	
9	0	0	0	0	494	512	
10	0	0	0	0	494	512	
11	0	0	0	0	505	510	
12	0	0	0	0	517	510	
13	0	0	0	0	519	509	
14	0	0	0	0	527	509	
15	0	0	0	0	531	509	
0	0	0	0	0	524	510	
1	0	0	0	0	513	510	
2	0	0	0	0	498	512	
3	0	0	0	0	495	512	
4	0	0	0	0	494	508	
5	0	0	0	0	500	509	
6	0	0	0	0	502	509	
7	0	0	0	0	504	510	
8	0	0	0	0	514	510	
9	0	0	0	0	528	508	
10	0	0	0	0	537	512	
11	0	0	0	0	539	511	
12	0	0	0	0	527	510	
13	0	0	0	0	513	509	
14	0	0	0	0	508	513	
15	0	0	0	0	497	513	
0	0	0	0	0	491	510	
1	0	0	0	0	483	511	
2	0	0	0	0	491	512	
3	0	0	0	0	506	512	
4	0	0	0	0	516	509	
5	0	0	0	0	516	506	
6	0	0	0	0	514	509	
7	0	0	0	0	515	510	
8	0	0	0	0	515	510	
9	0	0	0	0	517	507	
10	0	0	0	0	519	511	
11	0	0	0	0	511	509	
12	0	0	0	0	511	512	
13	0	0	0	0	514	511	
14	0	0	0	0	519	512	
15	0	0	0	0	521	511	
0	0	0	0	0	516	508	
1	0	0	0	0	515	510	
2	0	0	0	0	513	511	
3	0	0	0	0	520	510	
4	0	0	0	0	525	512	
5	0	0	0	0	519	512	
6	0	0	0	0	515	510	
7	0	0	0	0	516	510	
8	0	0	0	0	512	512	
9	0	0	0	0	499	512	
10	0	0	0	0	487	509	
11	0	0	0	0	484	509	
12	0	0	0	0	496	512	
13	0	0	0	0	508	509	
14	0	0	0	0	513	508	
15	0	0	0	0	506	509	
0	0	0	0	0	519	510	
1	0	0	0	0	559	508	
2	0	0	0	0	575	510	
3	0	0	0	0	555	511	
4	0	0	0	0	507	511	
5	0	0	0	0	467	511	
6	0	0	0	0	438	512	
7	0	0	0	0	419	511	
8	0	0	0	0	421	511	
9	0	0	0	0	449	510	
10	0	0	0	0	507	509	
11	0	0	0	0	552	507	
12	0	0	0	0	563	510	
13	0	0	0	0	554	509	
14	0	0	0	0	536	508	
15	0	0	0	0	518	509	
0	0	0	0	0	504	511	
1	0	0	0	0	487	510	
2	0	0	0	0	491	510	
3	0	0	0	0	500	511	
4	0	0	0	0	506	512	
5	0	0	0	0	509	511	
6	0	0	0	0	521	512	
7	0	0	0	0	520	512	
8	0	0	0	0	525	511	
9	0	0	0	0	546	511	
10	0	0	0	0	553	509	
11	0	0	0	0	542	508	
12	0	0	0	0	521	507	
13	0	0	0	0	504	508	
14	0	0	0	0	496	511	
15	0	0	0	0	492	510	
0	0	0	0	0	484	510	
1	0	0	0	0	493	511	
2	0	0	0	0	504	509	
3	0	0	0	0	508	511	
4	0	0	0	0	507	510	
5	0	0	0	0	508	510	
6	0	0	0	0	513	508	
7	0	0	0	0	512	510	
8	0	0	0	0	511	511	
9	0	0	0	0	512	511	
10	0	0	0	0	524	510	
11	0	0	0	0	533	509	
12	0	0	0	0	526	509	
13	0	0	0	0	518	511	
14	0	0	0	0	507	511	
15	0	0	0	0	508	511	
0	0	0	0	0	501	509	
1	0	0	0	0	502	509	
2	0	0	0	0	509	510	
3	0	0	0	0	512	509	
4	0	0	0	0	512	509	
5	0	0	0	0	511	508	
6	0	0	0	0	514	510	
7	0	0	0	0	515	509	
8	0	0	0	0	521	511	
9	0	0	0	0	524	509	
10	0	0	0	0	526	508	
11	0	0	0	0	524	509	
12	0	0	0	0	520	511	
13	0	0	0	0	508	510	
14	0	0	0	0	500	510	
15	0	0	0	0	504	512	
0	0	0	0	0	497	511	
1	0	0	0	0	495	513	
2	0	0	0	0	489	508	
3	0	0	0	0	491	511	
4	0	0	0	0	501	511	
5	0	0	0	0	506	510	
6	0	0	0	0	518	510	
7	0	0	0	0	519	511	
8	0	0	0	0	516	510	
9	0	0	0	0	512	508	
10	0	0	0	0	507	509	
11	0	0	0	0	503	511	
12	0	0	0	0	502	511	
13	0	0	0	0	509	511	
14	0	0	0	0	515	509	
15	0	0	0	0	514	510	
0	0	0	0	0	514	513	
1	0	0	0	0	512	511	
2	0	0	0	0	524	512	
3	0	0	0	0	524	511	
4	0	0	0	0	515	509	
5	0	0	0	0	508	511	
6	0	0	0	0	504	511	
7	0	0	0	0	514	511	
8	0	0	0	0	518	510	
9	0	0	0	0	514	511	
10	0	0	0	0	518	511	
11	0	0	0	0	518	510	
12	0	0	0	0	528	509	
13	0	0	0	0	524	510	
14	0	0	0	0	513	510	
15	0	0	0	0	493	510	
0	0	0	0	0	479	509	
1	0	0	0	0	478	511	
2	0	0	0	0	476	510	
3	0	0	0	0	481	511	
4	0	0	0	0	493	512	
5	0	0	0	0	504	511	
6	0	0	0	0	511	511	
7	0	0	0	0	521	508	
8	0	0	0	0	534	509	
9	0	0	0	0	542	508	
10	0	0	0	0	536	510	
11	0	0	0	0	529	512	
12	0	0	0	0	520	511	
13	0	0	0	0	514	512	
14	0	0	0	0	502	511	
15	0	0	0	0	502	510	
0	0	0	0	0	503	508	
1	0	0	0	0	509	510	
2	0	0	0	0	514	510	
3	0	0	0	0	515	512	
4	0	0	0	0	515	510	
5	0	0	0	0	516	512	
6	0	0	0	0	519	510	
7	0	0	0	0	531	510	
8	0	0	0	0	527	510	
9	0	0	0	0	516	510	
10	0	0	0	0	508	510	
11	0	0	0	0	505	510	
12	0	0	0	0	510	511	
13	0	0	0	0	511	510	
14	0	0	0	0	500	513	
15	0	0	0	0	500	512	
0	0	0	0	0	502	512	
1	0	0	0	0	494	509	
2	0	0	0	0	486	511	
3	0	0	0	0	492	509	
4	0	0	0	0	497	510	
5	0	0	0	0	500	510	
6	0	0	0	0	507	509	
7	0	0	0	0	514	510	
8	0	0	0	0	525	510	
9	0	0	0	0	540	510	
10	0	0	0	0	544	510	
11	0	0	0	0	548	511	
12	0	0	0	0	569	511	
13	0	0	0	0	569	511	
14	0	0	0	0	548	511	
15	0	0	0	0	504	511	
0	0	0	0	0	465	509	
1	0	0	0	0	439	510	
2	0	0	0	0	434	511	
3	0	0	0	0	428	510	
4	0	0	0	0	438	512	
5	0	0	0	0	470	510	
6	0	0	0	0	502	508	
7	0	0	0	0	521	511	
8	0	0	0	0	528	509	
9	0	0	0	0	537	511	
10	0	0	0	0	543	511	
11	0	0	0	0	550	509	
12	0	0	0	0	544	510	
13	0	0	0	0	534	510	
14	0	0	0	0	528	509	
15	0	0	0	0	534	509	
0	0	0	0	0	531	509	
1	0	0	0	0	533	511	
2	0	0	0	0	515	510	
3	0	0	0	0	508	510	
4	0	0	0	0	504	509	
5	0	0	0	0	505	510	
6	0	0	0	0	505	510	
7	0	0	0	0	517	510	
8	0	0	0	0	520	510	
9	0	0	0	0	513	511	
10	0	0	0	0	500	512	
11	0	0	0	0	492	515	
12	0	0	0	0	484	512	
13	0	0	0	0	474	511	
14	0	0	0	0	463	510	
15	0	0	0	0	469	511	
0	0	0	0	0	489	512	
1	0	0	0	0	510	512	
2	0	0	0	0	520	509	
3	0	0	0	0	521	507	
4	0	0	0	0	518	510	
5	0	0	0	0	523	510	
6	0	0	0	0	527	510	
7	0	0	0	0	528	509	
8	0	0	0	0	523	511	
9	0	0	0	0	513	509	
10	0	0	0	0	517	510	
11	0	0	0	0	525	511	
12	0	0	0	0	529	511	
13	0	0	0	0	527	511	
14	0	0	0	0	519	508	
15	0	0	0	0	512	510	
0	0	0	0	0	507	510	
1	0	0	0	0	509	512	
2	0	0	0	0	505	512	
3	0	0	0	0	504	510	
4	0	0	0	0	515	511	
5	0	0	0	0	520	511	
6	0	0	0	0	521	510	
7	0	0	0	0	516	508	
8	0	0	0	0	512	510	
9	0	0	0	0	511	512	
10	0	0	0	0	532	510	
11	0	0	0	0	527	511	
12	0	0	0	0	519	510	
13	0	0	0	0	511	510	
14	0	0	0	0	495	510	
15	0	0	0	0	487	510	
0	0	0	0	0	488	511	
1	0	0	0	0	486	511	
2	0	0	0	0	493	511	
3	0	0	0	0	510	511	
4	0	0	0	0	513	511	
5	0	0	0	0	511	510	
6	0	0	0	0	510	511	
7	0	0	0	0	507	510	
8	0	0	0	0	494	511	
9	0	0	0	0	492	510	
10	0	0	0	0	501	510	
11	0	0	0	0	507	509	
12	0	0	0	0	525	512	
13	0	0	0	0	532	511	
14	0	0	0	0	530	511	
15	0	0	0	0	523	508	
0	0	0	0	0	514	507	
1	0	0	0	0	508	511	
2	0	0	0	0	502	511	
3	0	0	0	0	500	514	
4	0	0	0	0	505	511	
5	0	0	0	0	511	511	
6	0	0	0	0	512	509	
7	0	0	0	0	521	513	
8	0	0	0	0	517	509	
9	0	0	0	0	514	508	
10	0	0	0	0	510	510	
11	0	0	0	0	504	510	
12	0	0	0	0	504	510	
13	0	0	0	0	508	510	
14	0	0	0	0	520	512	
15	0	0	0	0	528	510	
0	0	0	0	0	528	509	
1	0	0	0	0	515	511	
2	0	0	0	0	500	510	
3	0	0	0	0	493	512	
4	0	0	0	0	503	512	
5	0	0	0	0	501	511	
6	0	0	0	0	498	510	
7	0	0	0	0	515	510	
8	0	0	0	0	523	511	
9	0	0	0	0	513	509	
10	0	0	0	0	501	513	
11	0	0	0	0	501	513	
12	0	0	0	0	512	510	
13	0	0	0	0	511	509	
14	0	0	0	0	503	511	
15	0	0	0	0	509	512	
0	0	0	0	0	513	510	
1	0	0	0	0	511	511	
2	0	0	0	0	507	510	
3	0	0	0	0	510	509	
4	0	0	0	0	517	510	
5	0	0	0	0	518	510	
6	0	0	0	0	520	509	
7	0	0	0	0	525	511	
8	0	0	0	0	527	512	
9	0	0	0	0	521	509	
10	0	0	0	0	522	511	
11	0	0	0	0	527	512	
12	0	0	0	0	518	510	
13	0	0	0	0	504	509	
14	0	0	0	0	494	512	
15	0	0	0	0	488	510	
0	0	0	0	0	497	510	
1	0	0	0	0	500	511	
2	0	0	0	0	504	510	
3	0	0	0	0	508	511	
4	0	0	0	0	508	511	
5	0	0	0	0	511	508	
6	0	0	0	0	514	509	
7	0	0	0	0	535	508	
8	0	0	0	0	540	509	
9	0	0	0	0	527	508	
10	0	0	0	0	511	510	
11	0	0	0	0	498	511	
12	0	0	0	0	490	510	
13	0	0	0	0	489	511	
14	0	0	0	0	495	513	
15	0	0	0	0	519	510	
0	0	0	0	0	532	510	
1	0	0	0	0	523	510	
2	0	0	0	0	508	510	
3	0	0	0	0	496	513	
4	0	0	0	0	496	511	
5	0	0	0	0	496	510	
6	0	0	0	0	494	510	
7	0	0	0	0	509	509	
8	0	0	0	0	512	508	
9	0	0	0	0	511	509	
10	0	0	0	0	507	512	
11	0	0	0	0	509	511	
12	0	0	0	0	518	513	
13	0	0	0	0	525	510	
14	0	0	0	0	520	510	
15	0	0	0	0	511	511	
0	0	0	0	0	510	508	
1	0	0	0	0	504	511	
2	0	0	0	0	508	512	
3	0	0	0	0	514	514	
4	0	0	0	0	513	511	
5	0	0	0	0	508	510	
6	0	0	0	0	518	510	
7	0	0	0	0	515	510	
8	0	0	0	0	513	508	
9	0	0	0	0	513	509	
10	0	0	0	0	518	508	
11	0	0	0	0	525	509	
12	0	0	0	0	530	510	
13	0	0	0	0	548	511	
14	0	0	0	0	541	511	
15	0	0	0	0	521	510	
0	0	0	0	0	503	510	
1	0	0	0	0	487	511	
2	0	0	0	0	472	509	
3	0	0	0	0	465	511	
4	0	0	0	0	467	512	
5	0	0	0	0	489	510	
6	0	0	0	0	527	511	
7	0	0	0	0	548	511	
8	0	0	0	0	553	511	
9	0	0	0	0	534	508	
10	0	0	0	0	510	509	
11	0	0	0	0	498	511	
12	0	0	0	0	480	512	
13	0	0	0	0	479	512	
14	0	0	0	0	477	511	
15	0	0	0	0	483	510	
0	0	0	0	0	506	511	
1	0	0	0	0	518	510	
2	0	0	0	0	515	509	
3	0	0	0	0	527	508	
4	0	0	0	0	527	511	
5	0	0	0	0	512	507	
6	0	0	0	0	503	513	
7	0	0	0	0	495	512	
8	0	0	0	0	494	510	
9	0	0	0	0	495	509	
10	0	0	0	0	508	509	
11	0	0	0	0	520	511	
12	0	0	0	0	511	513	
13	0	0	0	0	508	510	
14	0	0	0	0	514	508	
15	0	0	0	0	529	510	
0	0	0	0	0	543	511	
1	0	0	0	0	551	511	
2	0	0	0	0	550	509	
3	0	0	0	0	539	511	
4	0	0	0	0	516	510	
5	0	0	0	0	503	512	
6	0	0	0	0	489	512	
7	0	0	0	0	488	509	
8	0	0	0	0	508	509	
9	0	0	0	0	519	510	
10	0	0	0	0	511	511	
11	0	0	0	0	500	511	
12	0	0	0	0	496	510	
13	0	0	0	0	505	511	
14	0	0	0	0	503	511	
15	0	0	0	0	494	512	
0	0	0	0	0	480	512	
1	0	0	0	0	483	511	
2	0	0	0	0	500	511	
3	0	0	0	0	516	509	
4	0	0	0	0	531	509	
5	0	0	0	0	548	510	
6	0	0	0	0	556	509	
7	0	0	0	0	543	510	
8	0	0	0	0	518	510	
9	0	0	0	0	495	511	
10	0	0	0	0	486	511	
11	0	0	0	0	473	511	
12	0	0	0	0	477	512	
13	0	0	0	0	489	512	
14	0	0	0	0	516	508	
15	0	0	0	0	521	509	
0	0	0	0	0	514	510	
1	0	0	0	0	510	509	
2	0	0	0	0	510	511	
3	0	0	0	0	511	508	
4	0	0	0	0	514	509	
5	0	0	0	0	526	511	
6	0	0	0	0	540	511	
7	0	0	0	0	541	509	
8	0	0	0	0	541	509	
9	0	0	0	0	533	511	
10	0	0	0	0	511	512	
11	0	0	0	0	497	510	
12	0	0	0	0	479	511	
13	0	0	0	0	466	511	
14	0	0	0	0	472	510	
15	0	0	0	0	488	512	
0	0	0	0	0	514	509	
1	0	0	0	0	527	510	
2	0	0	0	0	536	511	
3	0	0	0	0	537	510	
4	0	0	0	0	525	509	
5	0	0	0	0	509	510	
6	0	0	0	0	492	512	
7	0	0	0	0	491	512	
8	0	0	0	0	482	511	
9	0	0	0	0	477	511	
10	0	0	0	0	494	509	
11	0	0	0	0	514	509	
12	0	0	0	0	529	509	
13	0	0	0	0	543	508	
14	0	0	0	0	557	508	
15	0	0	0	0	545	508	
0	0	0	0	0	531	509	
1	0	0	0	0	521	513	
2	0	0	0	0	508	512	
3	0	0	0	0	495	512	
4	0	0	0	0	487	509	
5	0	0	0	0	499	511	
6	0	0	0	0	509	511	
7	0	0	0	0	511	511	
8	0	0	0	0	518	511	
9	0	0	0	0	518	512	
10	0	0	0	0	514	512	
11	0	0	0	0	500	510	
12	0	0	0	0	488	509	
13	0	0	0	0	489	510	
14	0	0	0	0	495	509	
15	0	0	0	0	504	510	
0	0	0	0	0	510	511	
1	0	0	0	0	518	510	
2	0	0	0	0	523	511	
3	0	0	0	0	529	513	
4	0	0	0	0	526	511	
5	0	0	0	0	520	513	
6	0	0	0	0	512	510	
7	0	0	0	0	502	509	
8	0	0	0	0	496	510	
9	0	0	0	0	511	511	
10	0	0	0	0	511	509	
11	0	0	0	0	516	510	
12	0	0	0	0	512	510	
13	0	0	0	0	511	511	
14	0	0	0	0	502	510	
15	0	0	0	0	499	510	
0	0	0	0	0	504	510	
1	0	0	0	0	499	511	
2	0	0	0	0	504	513	
3	0	0	0	0	526	511	
4	0	0	0	0	537	511	
5	0	0	0	0	520	512	
6	0	0	0	0	508	511	
7	0	0	0	0	500	511	
8	0	0	0	0	498	510	
9	0	0	0	0	489	511	
10	0	0	0	0	486	509	
11	0	0	0	0	482	509	
12	0	0	0	0	496	511	
13	0	0	0	0	514	510	
14	0	0	0	0	520	506	
15	0	0	0	0	526	510	
0	0	0	0	0	530	509	
1	0	0	0	0	524	511	
2	0	0	0	0	515	511	
3	0	0	0	0	509	510	
4	0	0	0	0	506	510	
5	0	0	0	0	510	510	
6	0	0	0	0	508	511	
7	0	0	0	0	511	511	
8	0	0	0	0	512	510	
9	0	0	0	0	512	511	
10	0	0	0	0	510	509	
11	0	0	0	0	510	510	
12	0	0	0	0	520	510	
13	0	0	0	0	532	512	
14	0	0	0	0	533	511	
15	0	0	0	0	535	511	
0	0	0	0	0	543	510	
1	0	0	0	0	533	509	
2	0	0	0	0	522	508	
3	0	0	0	0	507	511	
4	0	0	0	0	499	511	
5	0	0	0	0	487	513	
6	0	0	0	0	479	513	
7	0	0	0	0	481	511	
8	0	0	0	0	499	513	
9	0	0	0	0	511	509	
10	0	0	0	0	510	510	
11	0	0	0	0	504	511	
12	0	0	0	0	501	511	
13	0	0	0	0	496	509	
14	0	0	0	0	492	510	
15	0	0	0	0	496	511	
0	0	0	0	0	518	510	
1	0	0	0	0	532	509	
2	0	0	0	0	529	508	
3	0	0	0	0	524	510	
4	0	0	0	0	526	511	
5	0	0	0	0	530	512	
6	0	0	0	0	520	509	
7	0	0	0	0	499	510	
8	0	0	0	0	491	508	
9	0	0	0	0	497	511	
10	0	0	0	0	499	510	
11	0	0	0	0	500	510	
12	0	0	0	0	502	511	
13	0	0	0	0	509	511	
14	0	0	0	0	513	512	
15	0	0	0	0	511	508	
0	0	0	0	0	519	510	
1	0	0	0	0	535	512	
2	0	0	0	0	545	508	
3	0	0	0	0	547	509	
4	0	0	0	0	552	510	
5	0	0	0	0	551	511	
6	0	0	0	0	523	512	
7	0	0	0	0	496	511	
8	0	0	0	0	468	511	
9	0	0	0	0	459	511	
10	0	0	0	0	464	512	
11	0	0	0	0	461	512	
12	0	0	0	0	470	510	
13	0	0	0	0	478	512	
14	0	0	0	0	492	511	
15	0	0	0	0	503	508	
0	0	0	0	0	513	508	
1	0	0	0	0	524	508	
2	0	0	0	0	533	512	
3	0	0	0	0	537	510	
4	0	0	0	0	549	508	
5	0	0	0	0	555	509	
6	0	0	0	0	556	511	
7	0	0	0	0	543	510	
8	0	0	0	0	519	511	
9	0	0	0	0	494	510	
10	0	0	0	0	478	511	
11	0	0	0	0	466	511	
12	0	0	0	0	465	511	
13	0	0	0	0	470	509	
14	0	0	0	0	488	512	
15	0	0	0	0	512	512	
0	0	0	0	0	523	511	
1	0	0	0	0	524	509	
2	0	0	0	0	524	510	
3	0	0	0	0	530	511	
4	0	0	0	0	536	511	
5	0	0	0	0	539	511	
6	0	0	0	0	536	510	
7	0	0	0	0	525	510	
8	0	0	0	0	521	510	
9	0	0	0	0	513	510	
10	0	0	0	0	515	510	
11	0	0	0	0	519	511	
12	0	0	0	0	523	511	
13	0	0	0	0	511	511	
14	0	0	0	0	502	509	
15	0	0	0	0	491	510	
0	0	0	0	0	478	510	
1	0	0	0	0	476	511	
2	0	0	0	0	476	510	
3	0	0	0	0	486	510	
4	0	0	0	0	509	512	
5	0	0	0	0	535	510	
6	0	0	0	0	550	509	
7	0	0	0	0	540	508	
8	0	0	0	0	529	509	
9	0	0	0	0	510	510	
10	0	0	0	0	497	512	
11	0	0	0	0	494	511	
12	0	0	0	0	487	511	
13	0	0	0	0	484	510	
14	0	0	0	0	484	511	
15	0	0	0	0	497	513	
0	0	0	0	0	512	511	
1	0	0	0	0	519	510	
2	0	0	0	0	525	513	
3	0	0	0	0	530	510	
4	0	0	0	0	531	510	
5	0	0	0	0	539	508	
6	0	0	0	0	545	510	
7	0	0	0	0	551	508	
8	0	0	0	0	542	512	
9	0	0	0	0	517	509	
10	0	0	0	0	496	510	
11	0	0	0	0	490	511	
12	0	0	0	0	493	511	
13	0	0	0	0	487	508	
14	0	0	0	0	486	508	
15	0	0	0	0	492	511	
0	0	0	0	0	495	509	
1	0	0	0	0	495	511	
2	0	0	0	0	483	510	
3	0	0	0	0	477	510	
4	0	0	0	0	494	513	
5	0	0	0	0	507	511	
6	0	0	0	0	518	511	
7	0	0	0	0	534	510	
8	0	0	0	0	536	508	
9	0	0	0	0	531	510	
10	0	0	0	0	532	509	
11	0	0	0	0	539	510	
12	0	0	0	0	548	510	
13	0	0	0	0	540	510	
14	0	0	0	0	528	510	
15	0	0	0	0	512	508	
0	0	0	0	0	504	507	
1	0	0	0	0	495	511	
2	0	0	0	0	482	510	
3	0	0	0	0	486	511	
4	0	0	0	0	492	511	
5	0	0	0	0	487	512	
6	0	0	0	0	489	513	
7	0	0	0	0	491	512	
8	0	0	0	0	491	508	
9	0	0	0	0	492	509	
10	0	0	0	0	498	509	
11	0	0	0	0	511	511	
12	0	0	0	0	521	511	
13	0	0	0	0	527	512	
14	0	0	0	0	529	511	
15	0	0	0	0	529	511	
0	0	0	0	0	526	510	
1	0	0	0	0	520	511	
2	0	0	0	0	515	511	
3	0	0	0	0	520	511	
4	0	0	0	0	523	510	
5	0	0	0	0	527	508	
6	0	0	0	0	521	508	
7	0	0	0	0	508	511	
8	0	0	0	0	502	511	
9	0	0	0	0	505	511	
10	0	0	0	0	508	510	
11	0	0	0	0	515	511	
12	0	0	0	0	517	512	
13	0	0	0	0	517	510	
14	0	0	0	0	513	511	
15	0	0	0	0	519	510	
0	0	0	0	0	519	511	
1	0	0	0	0	509	510	
2	0	0	0	0	502	509	
3	0	0	0	0	498	511	
4	0	0	0	0	494	510	
5	0	0	0	0	488	512	
6	0	0	0	0	491	511	
7	0	0	0	0	496	510	
8	0	0	0	0	504	511	
9	0	0	0	0	511	508	
10	0	0	0	0	513	510	
11	0	0	0	0	514	510	
12	0	0	0	0	518	512	
13	0	0	0	0	528	512	
14	0	0	0	0	532	511	
15	0	0	0	0	522	512	
0	0	0	0	0	515	510	
1	0	0	0	0	519	510	
2	0	0	0	0	519	510	
3	0	0	0	0	527	508	
4	0	0	0	0	530	511	
5	0	0	0	0	533	511	
6	0	0	0	0	524	511	
7	0	0	0	0	495	508	
8	0	0	0	0	476	510	
9	0	0	0	0	469	509	
10	0	0	0	0	480	509	
11	0	0	0	0	492	511	
12	0	0	0	0	487	512	
13	0	0	0	0	492	511	
14	0	0	0	0	508	509	
15	0	0	0	0	510	509	
0	0	0	0	0	508	512	
1	0	0	0	0	506	509	
2	0	0	0	0	508	510	
3	0	0	0	0	524	510	
4	0	0	0	0	538	510	
5	0	0	0	0	540	510	
6	0	0	0	0	532	510	
7	0	0	0	0	521	513	
8	0	0	0	0	516	509	
9	0	0	0	0	521	512	
10	0	0	0	0	528	510	
11	0	0	0	0	524	511	
12	0	0	0	0	515	510	
13	0	0	0	0	507	512	
14	0	0	0	0	499	511	
15	0	0	0	0	499	512	
0	0	0	0	0	496	512	
1	0	0	0	0	500	512	
2	0	0	0	0	502	511	
3	0	0	0	0	500	511	
4	0	0	0	0	507	509	
5	0	0	0	0	513	511	
6	0	0	0	0	526	510	
7	0	0	0	0	530	512	
8	0	0	0	0	531	514	
9	0	0	0	0	535	511	
10	0	0	0	0	539	513	
11	0	0	0	0	521	512	
12	0	0	0	0	485	510	
13	0	0	0	0	460	512	
14	0	0	0	0	450	514	
15	0	0	0	0	452	515	
0	0	0	0	0	455	513	
1	0	0	0	0	471	514	
2	0	0	0	0	487	513	
3	0	0	0	0	510	512	
4	0	0	0	0	528	513	
5	0	0	0	0	534	512	
6	0	0	0	0	536	512	
7	0	0	0	0	537	511	
8	0	0	0	0	541	507	
9	0	0	0	0	547	508	
10	0	0	0	0	547	505	
11	0	0	0	0	550	505	
12	0	0	0	0	550	505	
13	0	0	0	0	532	504	
14	0	0	0	0	512	504	
15	0	0	0	0	497	505	
0	0	0	0	0	478	505	
1	0	0	0	0	472	504	
2	0	0	0	0	479	507	
3	0	0	0	0	489	506	
4	0	0	0	0	499	506	
5	0	0	0	0	516	505	
6	0	0	0	0	536	506	
7	0	0	0	0	540	505	
8	0	0	0	0	535	504	
9	0	0	0	0	532	506	
10	0	0	0	0	523	508	
11	0	0	0	0	512	508	
12	0	0	0	0	499	510	
13	0	0	0	0	492	510	
14	0	0	0	0	496	511	
15	0	0	0	0	496	515	
0	0	0	0	0	495	511	
1	0	0	0	0	499	512	
2	0	0	0	0	508	513	
3	0	0	0	0	517	514	
4	0	0	0	0	512	513	
5	0	0	0	0	515	512	
6	0	0	0	0	518	511	
7	0	0	0	0	521	513	
8	0	0	0	0	523	515	
9	0	0	0	0	515	515	
10	0	0	0	0	497	513	
11	0	0	0	0	495	515	
12	0	0	0	0	494	512	
13	0	0	0	0	504	513	
14	0	0	0	0	513	512	
15	0	0	0	0	510	511	
0	0	0	0	0	508	514	
1	0	0	0	0	511	513	
2	0	0	0	0	511	509	
3	0	0	0	0	508	511	
4	0	0	0	0	513	511	
5	0	0	0	0	518	510	
6	0	0	0	0	520	510	
7	0	0	0	0	523	511	
8	0	0	0	0	527	511	
9	0	0	0	0	533	513	
10	0	0	0	0	535	511	
11	0	0	0	0	530	512	
12	0	0	0	0	521	510	
13	0	0	0	0	513	511	
14	0	0	0	0	504	510	
15	0	0	0	0	492	509	
0	0	0	0	0	481	512	
1	0	0	0	0	472	511	
2	0	0	0	0	476	509	
3	0	0	0	0	487	512	
4	0	0	0	0	500	509	
5	0	0	0	0	508	512	
6	0	0	0	0	518	511	
7	0	0	0	0	526	510	
8	0	0	0	0	530	510	
9	0	0	0	0	536	510	
10	0	0	0	0	555	508	
11	0	0	0	0	548	507	
12	0	0	0	0	538	509	
13	0	0	0	0	517	510	
14	0	0	0	0	493	510	
15	0	0	0	0	471	511	
0	0	0	0	0	455	508	
1	0	0	0	0	451	508	
2	0	0	0	0	470	510	
3	0	0	0	0	487	512	
4	0	0	0	0	496	511	
5	0	0	0	0	513	510	
6	0	0	0	0	520	509	
7	0	0	0	0	525	511	
8	0	0	0	0	533	510	
9	0	0	0	0	551	510	
10	0	0	0	0	561	510	
11	0	0	0	0	568	510	
12	0	0	0	0	567	510	
13	0	0	0	0	540	510	
14	0	0	0	0	507	510	
15	0	0	0	0	479	511	
0	0	0	0	0	463	512	
1	0	0	0	0	456	510	
2	0	0	0	0	461	510	
3	0	0	0	0	467	510	
4	0	0	0	0	487	509	
5	0	0	0	0	503	513	
6	0	0	0	0	505	511	
7	0	0	0	0	509	511	
8	0	0	0	0	518	510	
9	0	0	0	0	523	510	
10	0	0	0	0	526	511	
11	0	0	0	0	527	509	
12	0	0	0	0	524	511	
13	0	0	0	0	521	511	
14	0	0	0	0	523	509	
15	0	0	0	0	519	509	
0	0	0	0	0	516	509	
1	0	0	0	0	514	509	
2	0	0	0	0	517	510	
3	0	0	0	0	516	510	
4	0	0	0	0	520	512	
5	0	0	0	0	517	510	
6	0	0	0	0	511	510	
7	0	0	0	0	522	510	
8	0	0	0	0	536	510	
9	0	0	0	0	539	510	
10	0	0	0	0	532	510	
11	0	0	0	0	517	512	
12	0	0	0	0	498	512	
13	0	0	0	0	488	509	
14	0	0	0	0	488	510	
15	0	0	0	0	483	511	
0	0	0	0	0	479	510	
1	0	0	0	0	489	509	
2	0	0	0	0	500	509	
3	0	0	0	0	505	511	
4	0	0	0	0	504	510	
5	0	0	0	0	499	508	
6	0	0	0	0	498	509	
7	0	0	0	0	507	512	
8	0	0	0	0	511	511	
9	0	0	0	0	516	510	
10	0	0	0	0	532	508	
11	0	0	0	0	542	512	
12	0	0	0	0	542	510	
13	0	0	0	0	545	511	
14	0	0	0	0	544	510	
15	0	0	0	0	522	509	
0	0	0	0	0	497	512	
1	0	0	0	0	471	510	
2	0	0	0	0	458	509	
3	0	0	0	0	465	508	
4	0	0	0	0	477	511	
5	0	0	0	0	494	510	
6	0	0	0	0	520	511	
7	0	0	0	0	532	512	
8	0	0	0	0	536	511	
9	0	0	0	0	544	511	
10	0	0	0	0	545	510	
11	0	0	0	0	531	511	
12	0	0	0	0	505	510	
13	0	0	0	0	492	511	
14	0	0	0	0	493	511	
15	0	0	0	0	494	510	
0	0	0	0	0	501	510	
1	0	0	0	0	496	511	
2	0	0	0	0	498	511	
3	0	0	0	0	500	510	
4	0	0	0	0	508	508	
5	0	0	0	0	515	509	
6	0	0	0	0	517	509	
7	0	0	0	0	513	509	
8	0	0	0	0	511	510	
9	0	0	0	0	511	510	
10	0	0	0	0	510	511	
11	0	0	0	0	514	510	
12	0	0	0	0	519	510	
13	0	0	0	0	521	510	
14	0	0	0	0	521	510	
15	0	0	0	0	524	510	
0	0	0	0	0	524	509	
1	0	0	0	0	522	510	
2	0	0	0	0	515	511	
3	0	0	0	0	506	511	
4	0	0	0	0	507	508	
5	0	0	0	0	500	510	
6	0	0	0	0	502	511	
7	0	0	0	0	513	512	
8	0	0	0	0	522	510	
9	0	0	0	0	526	511	
10	0	0	0	0	527	511	
11	0	0	0	0	513	511	
12	0	0	0	0	506	511	
13	0	0	0	0	497	511	
14	0	0	0	0	487	511	
15	0	0	0	0	486	510	
0	0	0	0	0	487	510	
1	0	0	0	0	495	510	
2	0	0	0	0	507	508	
3	0	0	0	0	518	511	
4	0	0	0	0	524	510	
5	0	0	0	0	524	510	
6	0	0	0	0	523	513	
7	0	0	0	0	520	511	
8	0	0	0	0	520	511	
9	0	0	0	0	517	512	
10	0	0	0	0	513	509	
11	0	0	0	0	512	509	
12	0	0	0	0	517	510	
13	0	0	0	0	524	507	
14	0	0	0	0	518	510	
15	0	0	0	0	535	511	
0	0	0	0	0	560	511	
1	0	0	0	0	558	511	
2	0	0	0	0	528	508	
3	0	0	0	0	493	511	
4	0	0	0	0	474	512	
5	0	0	0	0	479	511	
6	0	0	0	0	477	510	
7	0	0	0	0	475	507	
8	0	0	0	0	486	509	
9	0	0	0	0	496	510	
10	0	0	0	0	492	511	
11	0	0	0	0	476	512	
12	0	0	0	0	465	511	
13	0	0	0	0	469	511	
14	0	0	0	0	485	511	
15	0	0	0	0	500	511	
0	0	0	0	0	516	513	
1	0	0	0	0	525	509	
2	0	0	0	0	536	508	
3	0	0	0	0	541	509	
4	0	0	0	0	548	511	
5	0	0	0	0	551	510	
6	0	0	0	0	556	509	
7	0	0	0	0	556	511	
8	0	0	0	0	540	510	
9	0	0	0	0	526	510	
10	0	0	0	0	509	510	
11	0	0	0	0	499	511	
12	0	0	0	0	487	512	
13	0	0	0	0	486	511	
14	0	0	0	0	485	509	
15	0	0	0	0	490	512	
0	0	0	0	0	499	511	
1	0	0	0	0	507	511	
2	0	0	0	0	510	510	
3	0	0	0	0	512	510	
4	0	0	0	0	516	509	
5	0	0	0	0	509	509	
6	0	0	0	0	500	511	
7	0	0	0	0	488	511	
8	0	0	0	0	488	511	
9	0	0	0	0	499	510	
10	0	0	0	0	510	510	
11	0	0	0	0	522	510	
12	0	0	0	0	531	510	
13	0	0	0	0	537	510	
14	0	0	0	0	530	511	
15	0	0	0	0	521	511	
0	0	0	0	0	512	510	
1	0	0	0	0	518	511	
2	0	0	0	0	525	510	
3	0	0	0	0	519	510	
4	0	0	0	0	515	509	
5	0	0	0	0	507	510	
6	0	0	0	0	501	510	
7	0	0	0	0	494	511	
8	0	0	0	0	495	511	
9	0	0	0	0	502	510	
10	0	0	0	0	511	509	
11	0	0	0	0	516	510	
12	0	0	0	0	523	510	
13	0	0	0	0	531	513	
14	0	0	0	0	533	510	
15	0	0	0	0	531	512	
0	0	0	0	0	529	511	
1	0	0	0	0	540	511	
2	0	0	0	0	536	511	
3	0	0	0	0	514	512	
4	0	0	0	0	484	510	
5	0	0	0	0	454	511	
6	0	0	0	0	448	508	
7	0	0	0	0	449	509	
8	0	0	0	0	465	510	
9	0	0	0	0	487	508	
10	0	0	0	0	502	510	
11	0	0	0	0	504	512	
12	0	0	0	0	514	510	
13	0	0	0	0	527	509	
14	0	0	0	0	529	513	
15	0	0	0	0	527	511	
0	0	0	0	0	532	511	
1	0	0	0	0	532	511	
2	0	0	0	0	523	510	
3	0	0	0	0	516	512	
4	0	0	0	0	513	511	
5	0	0	0	0	511	510	
6	0	0	0	0	516	510	
7	0	0	0	0	530	510	
8	0	0	0	0	538	509	
9	0	0	0	0	527	510	
10	0	0	0	0	515	509	
11	0	0	0	0	507	509	
12	0	0	0	0	500	508	
13	0	0	0	0	503	510	
14	0	0	0	0	499	509	
15	0	0	0	0	494	510	
0	0	0	0	0	507	511	
1	0	0	0	0	508	508	
2	0	0	0	0	509	512	
3	0	0	0	0	513	510	
4	0	0	0	0	521	511	
5	0	0	0	0	520	513	
6	0	0	0	0	521	510	
7	0	0	0	0	532	510	
8	0	0	0	0	529	511	
9	0	0	0	0	519	511	
10	0	0	0	0	503	510	
11	0	0	0	0	487	508	
12	0	0	0	0	479	509	
13	0	0	0	0	479	510	
14	0	0	0	0	483	509	
15	0	0	0	0	493	509	
0	0	0	0	0	504	510	
1	0	0	0	0	507	510	
2	0	0	0	0	514	511	
3	0	0	0	0	523	512	
4	0	0	0	0	528	511	
5	0	0	0	0	536	511	
6	0	0	0	0	535	510	
7	0	0	0	0	528	511	
8	0	0	0	0	531	510	
9	0	0	0	0	525	513	
10	0	0	0	0	510	512	
11	0	0	0	0	498	512	
12	0	0	0	0	497	512	
13	0	0	0	0	503	512	
14	0	0	0	0	496	511	
15	0	0	0	0	493	510	
0	0	0	0	0	491	510	
1	0	0	0	0	487	512	
2	0	0	0	0	490	509	
3	0	0	0	0	495	508	
4	0	0	0	0	506	508	
5	0	0	0	0	525	510	
6	0	0	0	0	548	511	
7	0	0	0	0	553	510	
8	0	0	0	0	554	510	
9	0	0	0	0	557	513	
10	0	0	0	0	534	510	
11	0	0	0	0	506	511	
12	0	0	0	0	478	512	
13	0	0	0	0	454	510	
14	0	0	0	0	449	510	
15	0	0	0	0	454	511	
0	0	0	0	0	473	511	
1	0	0	0	0	512	509	
2	0	0	0	0	536	509	
3	0	0	0	0	542	512	
4	0	0	0	0	536	511	
5	0	0	0	0	526	512	
6	0	0	0	0	518	510	
7	0	0	0	0	508	511	
8	0	0	0	0	509	511	
9	0	0	0	0	518	510	
10	0	0	0	0	529	508	
11	0	0	0	0	524	509	
12	0	0	0	0	516	509	
13	0	0	0	0	508	510	
14	0	0	0	0	497	509	
15	0	0	0	0	494	510	
0	0	0	0	0	505	512	
1	0	0	0	0	518	510	
2	0	0	0	0	533	509	
3	0	0	0	0	533	511	
4	0	0	0	0	521	510	
5	0	0	0	0	515	509	
6	0	0	0	0	507	511	
7	0	0	0	0	496	511	
8	0	0	0	0	496	511	
9	0	0	0	0	496	510	
10	0	0	0	0	495	510	
11	0	0	0	0	500	509	
12	0	0	0	0	500	510	
13	0	0	0	0	502	510	
14	0	0	0	0	502	510	
15	0	0	0	0	504	510	
0	0	0	0	0	510	511	
1	0	0	0	0	519	511	
2	0	0	0	0	524	513	
3	0	0	0	0	528	513	
4	0	0	0	0	530	511	
5	0	0	0	0	532	510	
6	0	0	0	0	543	508	
7	0	0	0	0	551	509	
8	0	0	0	0	542	509	
9	0	0	0	0	530	509	
10	0	0	0	0	518	512	
11	0	0	0	0	504	510	
12	0	0	0	0	489	509	
13	0	0	0	0	470	508	
14	0	0	0	0	454	511	
15	0	0	0	0	465	513	
0	0	0	0	0	477	511	
1	0	0	0	0	492	511	
2	0	0	0	0	510	509	
3	0	0	0	0	512	509	
4	0	0	0	0	511	510	
5	0	0	0	0	508	510	
6	0	0	0	0	499	511	
7	0	0	0	0	499	510	
8	0	0	0	0	504	512	
9	0	0	0	0	512	510	
10	0	0	0	0	523	509	
11	0	0	0	0	530	507	
12	0	0	0	0	533	508	
13	0	0	0	0	543	510	
14	0	0	0	0	545	511	
15	0	0	0	0	540	512	
0	0	0	0	0	524	510	
1	0	0	0	0	505	512	
2	0	0	0	0	496	511	
3	0	0	0	0	489	511	
4	0	0	0	0	478	512	
5	0	0	0	0	478	510	
6	0	0	0	0	494	511	
7	0	0	0	0	506	513	
8	0	0	0	0	514	512	
9	0	0	0	0	522	510	
10	0	0	0	0	524	508	
11	0	0	0	0	525	509	
12	0	0	0	0	533	510	
13	0	0	0	0	547	509	
14	0	0	0	0	548	508	
15	0	0	0	0	535	511	
0	0	0	0	0	512	513	
1	0	0	0	0	491	509	
2	0	0	0	0	498	511	
3	0	0	0	0	506	510	
4	0	0	0	0	498	510	
5	0	0	0	0	481	510	
6	0	0	0	0	484	511	
7	0	0	0	0	491	510	
8	0	0	0	0	486	510	
9	0	0	0	0	489	511	
10	0	0	0	0	490	510	
11	0	0	0	0	495	511	
12	0	0	0	0	507	511	
13	0	0	0	0	519	511	
14	0	0	0	0	537	511	
15	0	0	0	0	548	511	
0	0	0	0	0	545	512	
1	0	0	0	0	538	510	
2	0	0	0	0	536	510	
3	0	0	0	0	532	510	
4	0	0	0	0	511	511	
5	0	0	0	0	491	511	
6	0	0	0	0	478	510	
7	0	0	0	0	475	508	
8	0	0	0	0	485	509	
9	0	0	0	0	493	512	
10	0	0	0	0	498	512	
11	0	0	0	0	504	510	
12	0	0	0	0	512	508	
13	0	0	0	0	523	510	
14	0	0	0	0	543	508	
15	0	0	0	0	548	510	
0	0	0	0	0	542	509	
1	0	0	0	0	545	511	
2	0	0	0	0	559	511	
3	0	0	0	0	545	510	
4	0	0	0	0	510	511	
5	0	0	0	0	479	509	
6	0	0	0	0	475	512	
7	0	0	0	0	479	512	
8	0	0	0	0	466	508	
9	0	0	0	0	455	510	
10	0	0	0	0	472	511	
11	0	0	0	0	487	511	
12	0	0	0	0	498	510	
13	0	0	0	0	500	509	
14	0	0	0	0	508	512	
15	0	0	0	0	515	512	
0	0	0	0	0	520	508	
1	0	0	0	0	530	510	
2	0	0	0	0	533	512	
3	0	0	0	0	532	511	
4	0	0	0	0	529	511	
5	0	0	0	0	529	510	
6	0	0	0	0	533	509	
7	0	0	0	0	543	508	
8	0	0	0	0	537	508	
9	0	0	0	0	536	510	
10	0	0	0	0	526	509	
11	0	0	0	0	521	510	
12	0	0	0	0	518	510	
13	0	0	0	0	519	511	
14	0	0	0	0	508	511	
15	0	0	0	0	488	511	
0	0	0	0	0	473	512	
1	0	0	0	0	463	511	
2	0	0	0	0	464	511	
3	0	0	0	0	474	512	
4	0	0	0	0	479	508	
5	0	0	0	0	500	510	
6	0	0	0	0	529	508	
7	0	0	0	0	567	510	
8	0	0	0	0	575	510	
9	0	0	0	0	555	510	
10	0	0	0	0	519	509	
11	0	0	0	0	489	511	
12	0	0	0	0	474	512	
13	0	0	0	0	471	510	
14	0	0	0	0	470	511	
15	0	0	0	0	482	510	
0	0	0	0	0	499	508	
1	0	0	0	0	509	512	
2	0	0	0	0	511	511	
3	0	0	0	0	511	510	
4	0	0	0	0	515	512	
5	0	0	0	0	515	509	
6	0	0	0	0	511	509	
7	0	0	0	0	511	508	
8	0	0	0	0	512	510	
9	0	0	0	0	518	511	
10	0	0	0	0	525	512	
11	0	0	0	0	527	512	
12	0	0	0	0	537	511	
13	0	0	0	0	548	511	
14	0	0	0	0	547	512	
15	0	0	0	0	542	508	
0	0	0	0	0	543	510	
1	0	0	0	0	537	510	
2	0	0	0	0	515	508	
3	0	0	0	0	487	510	
4	0	0	0	0	464	510	
5	0	0	0	0	462	510	
6	0	0	0	0	467	510	
7	0	0	0	0	476	510	
8	0	0	0	0	497	510	
9	0	0	0	0	521	510	
10	0	0	0	0	531	510	
11	0	0	0	0	533	510	
12	0	0	0	0	528	508	
13	0	0	0	0	508	511	
14	0	0	0	0	492	513	
15	0	0	0	0	486	511	
0	0	0	0	0	479	509	
1	0	0	0	0	496	509	
2	0	0	0	0	507	510	
3	0	0	0	0	517	511	
4	0	0	0	0	531	510	
5	0	0	0	0	531	509	
6	0	0	0	0	526	508	
7	0	0	0	0	519	511	
8	0	0	0	0	514	511	
9	0	0	0	0	511	510	
10	0	0	0	0	503	512	
11	0	0	0	0	499	510	
12	0	0	0	0	498	511	
13	0	0	0	0	506	510	
14	0	0	0	0	514	511	
15	0	0	0	0	524	511	
0	0	0	0	0	528	511	
1	0	0	0	0	529	511	
2	0	0	0	0	527	511	
3	0	0	0	0	522	511	
4	0	0	0	0	517	512	
5	0	0	0	0	519	511	
6	0	0	0	0	510	510	
7	0	0	0	0	496	510	
8	0	0	0	0	487	508	
9	0	0	0	0	489	508	
10	0	0	0	0	496	511	
11	0	0	0	0	492	511	
12	0	0	0	0	493	508	
13	0	0	0	0	511	509	
14	0	0	0	0	527	512	
15	0	0	0	0	527	512	
0	0	0	0	0	531	510	
1	0	0	0	0	526	511	
2	0	0	0	0	520	510	
3	0	0	0	0	511	510	
4	0	0	0	0	508	510	
5	0	0	0	0	506	510	
6	0	0	0	0	511	513	
7	0	0	0	0	511	511	
8	0	0	0	0	500	511	
9	0	0	0	0	503	510	
10	0	0	0	0	510	511	
11	0	0	0	0	505	510	
12	0	0	0	0	507	509	
13	0	0	0	0	513	508	
14	0	0	0	0	531	509	
15	0	0	0	0	561	511	
0	0	0	0	0	601	510	
1	0	0	0	0	591	510	
2	0	0	0	0	560	511	
3	0	0	0	0	507	512	
4	0	0	0	0	458	509	
5	0	0	0	0	427	511	
6	0	0	0	0	410	512	
7	0	0	0	0	398	512	
8	0	0	0	0	417	511	
9	0	0	0	0	447	510	
10	0	0	0	0	473	509	
11	0	0	0	0	504	509	
12	0	0	0	0	524	511	
13	0	0	0	0	530	511	
14	0	0	0	0	535	508	
15	0	0	0	0	538	510	
0	0	0	0	0	540	511	
1	0	0	0	0	538	512	
2	0	0	0	0	542	511	
3	0	0	0	0	542	512	
4	0	0	0	0	541	512	
5	0	0	0	0	541	511	
6	0	0	0	0	535	508	
7	0	0	0	0	532	509	
8	0	0	0	0	518	511	
9	0	0	0	0	504	511	
10	0	0	0	0	492	512	
11	0	0	0	0	491	511	
12	0	0	0	0	494	512	
13	0	0	0	0	515	509	
14	0	0	0	0	526	510	
15	0	0	0	0	525	508	
0	0	0	0	0	519	511	
1	0	0	0	0	515	510	
2	0	0	0	0	508	510	
3	0	0	0	0	497	509	
4	0	0	0	0	492	509	
5	0	0	0	0	494	508	
6	0	0	0	0	505	511	
7	0	0	0	0	515	511	
8	0	0	0	0	513	509	
9	0	0	0	0	512	512	
10	0	0	0	0	510	510	
11	0	0	0	0	508	509	
12	0	0	0	0	512	511	
13	0	0	0	0	511	512	
14	0	0	0	0	505	509	
15	0	0	0	0	510	511	
0	0	0	0	0	522	511	
1	0	0	0	0	534	510	
2	0	0	0	0	532	511	
3	0	0	0	0	532	510	
4	0	0	0	0	527	510	
5	0	0	0	0	516	510	
6	0	0	0	0	507	511	
7	0	0	0	0	494	509	
8	0	0	0	0	498	511	
9	0	0	0	0	510	510	
10	0	0	0	0	520	510	
11	0	0	0	0	519	510	
12	0	0	0	0	513	510	
13	0	0	0	0	522	513	
14	0	0	0	0	515	511	
15	0	0	0	0	496	511	
0	0	0	0	0	480	510	
1	0	0	0	0	478	508	
2	0	0	0	0	480	510	
3	0	0	0	0	482	513	
4	0	0	0	0	480	512	
5	0	0	0	0	493	511	
6	0	0	0	0	502	508	
7	0	0	0	0	504	511	
8	0	0	0	0	511	510	
9	0	0	0	0	520	511	
10	0	0	0	0	524	510	
11	0	0	0	0	520	509	
12	0	0	0	0	522	510	
13	0	0	0	0	520	511	
14	0	0	0	0	519	510	
15	0	0	0	0	540	510	
0	0	0	0	0	571	509	
1	0	0	0	0	583	510	
2	0	0	0	0	558	509	
3	0	0	0	0	517	508	
4	0	0	0	0	489	509	
5	0	0	0	0	466	511	
6	0	0	0	0	449	511	
7	0	0	0	0	446	509	
8	0	0	0	0	473	510	
9	0	0	0	0	493	511	
10	0	0	0	0	501	510	
11	0	0	0	0	500	509	
12	0	0	0	0	499	510	
13	0	0	0	0	501	510	
14	0	0	0	0	505	510	
15	0	0	0	0	504	511	
0	0	0	0	0	519	509	
1	0	0	0	0	536	511	
2	0	0	0	0	540	511	
3	0	0	0	0	544	511	
4	0	0	0	0	542	511	
5	0	0	0	0	533	508	
6	0	0	0	0	523	512	
7	0	0	0	0	512	509	
8	0	0	0	0	504	508	
9	0	0	0	0	501	510	
10	0	0	0	0	508	511	
11	0	0	0	0	530	510	
12	0	0	0	0	558	511	
13	0	0	0	0	551	511	
14	0	0	0	0	525	511	
15	0	0	0	0	513	509	
0	0	0	0	0	492	511	
1	0	0	0	0	465	510	
2	0	0	0	0	454	512	
3	0	0	0	0	450	514	
4	0	0	0	0	466	510	
5	0	0	0	0	503	511	
6	0	0	0	0	530	510	
7	0	0	0	0	540	509	
8	0	0	0	0	539	508	
9	0	0	0	0	527	512	
10	0	0	0	0	516	511	
11	0	0	0	0	502	511	
12	0	0	0	0	499	510	
13	0	0	0	0	504	511	
14	0	0	0	0	516	509	
15	0	0	0	0	529	509	
0	0	0	0	0	537	507	
1	0	0	0	0	525	510	
2	0	0	0	0	497	510	
3	0	0	0	0	492	510	
4	0	0	0	0	494	513	
5	0	0	0	0	492	510	
6	0	0	0	0	518	510	
7	0	0	0	0	529	510	
8	0	0	0	0	527	511	
9	0	0	0	0	518	508	
10	0	0	0	0	508	510	
11	0	0	0	0	490	512	
12	0	0	0	0	468	509	
13	0	0	0	0	459	509	
14	0	0	0	0	472	509	
15	0	0	0	0	491	511	
0	0	0	0	0	514	512	
1	0	0	0	0	543	511	
2	0	0	0	0	552	511	
3	0	0	0	0	559	508	
4	0	0	0	0	561	510	
5	0	0	0	0	574	509	
6	0	0	0	0	559	510	
7	0	0	0	0	518	512	
8	0	0	0	0	477	512	
9	0	0	0	0	457	510	
10	0	0	0	0	460	511	
11	0	0	0	0	474	513	
12	0	0	0	0	482	510	
13	0	0	0	0	503	511	
14	0	0	0	0	514	511	
15	0	0	0	0	527	512	
0	0	0	0	0	531	511	
1	0	0	0	0	527	511	
2	0	0	0	0	529	509	
3	0	0	0	0	519	510	
4	0	0	0	0	507	509	
5	0	0	0	0	491	509	
6	0	0	0	0	479	510	
7	0	0	0	0	484	510	
8	0	0	0	0	496	512	
9	0	0	0	0	526	511	
10	0	0	0	0	541	510	
11	0	0	0	0	544	509	
12	0	0	0	0	542	509	
13	0	0	0	0	540	511	
14	0	0	0	0	529	512	
15	0	0	0	0	523	512	
0	0	0	0	0	497	512	
1	0	0	0	0	477	510	
2	0	0	0	0	477	509	
3	0	0	0	0	481	511	
4	0	0	0	0	483	510	
5	0	0	0	0	494	510	
6	0	0	0	0	495	511	
7	0	0	0	0	489	509	
8	0	0	0	0	491	510	
9	0	0	0	0	495	510	
10	0	0	0	0	500	510	
11	0	0	0	0	503	509	
12	0	0	0	0	501	510	
13	0	0	0	0	518	508	
14	0	0	0	0	537	510	
15	0	0	0	0	544	510	
0	0	0	0	0	545	510	
1	0	0	0	0	553	510	
2	0	0	0	0	543	512	
3	0	0	0	0	527	511	
4	0	0	0	0	528	512	
5	0	0	0	0	508	512	
6	0	0	0	0	496	510	
7	0	0	0	0	498	513	
8	0	0	0	0	493	509	
9	0	0	0	0	493	510	
10	0	0	0	0	487	512	
11	0	0	0	0	488	509	
12	0	0	0	0	500	511	
13	0	0	0	0	515	508	
14	0	0	0	0	525	508	
15	0	0	0	0	533	512	
0	0	0	0	0	533	508	
1	0	0	0	0	531	508	
2	0	0	0	0	526	509	
3	0	0	0	0	518	512	
4	0	0	0	0	513	512	
5	0	0	0	0	512	511	
6	0	0	0	0	509	511	
7	0	0	0	0	509	510	
8	0	0	0	0	502	511	
9	0	0	0	0	503	510	
10	0	0	0	0	503	510	
11	0	0	0	0	517	509	
12	0	0	0	0	532	511	
13	0	0	0	0	550	510	
14	0	0	0	0	552	511	
15	0	0	0	0	531	511	
0	0	0	0	0	502	510	
1	0	0	0	0	485	511	
2	0	0	0	0	471	513	
3	0	0	0	0	454	510	
4	0	0	0	0	448	509	
5	0	0	0	0	460	508	
6	0	0	0	0	484	510	
7	0	0	0	0	500	511	
8	0	0	0	0	504	512	
9	0	0	0	0	504	510	
10	0	0	0	0	515	510	
11	0	0	0	0	530	512	
12	0	0	0	0	526	512	
13	0	0	0	0	524	512	
14	0	0	0	0	524	510	
15	0	0	0	0	526	510	
0	0	0	0	0	524	510	
1	0	0	0	0	523	511	
2	0	0	0	0	519	510	
3	0	0	0	0	520	510	
4	0	0	0	0	526	510	
5	0	0	0	0	532	508	
6	0	0	0	0	539	508	
7	0	0	0	0	532	509	
8	0	0	0	0	545	509	
9	0	0	0	0	549	510	
10	0	0	0	0	528	511	
11	0	0	0	0	495	509	
12	0	0	0	0	465	510	
13	0	0	0	0	464	510	
14	0	0	0	0	472	512	
15	0	0	0	0	472	513	
0	0	0	0	0	484	511	
1	0	0	0	0	512	511	
2	0	0	0	0	522	510	
3	0	0	0	0	522	510	
4	0	0	0	0	516	511	
5	0	0	0	0	503	509	
6	0	0	0	0	501	509	
7	0	0	0	0	495	512	
8	0	0	0	0	495	511	
9	0	0	0	0	504	509	
10	0	0	0	0	514	509	
11	0	0	0	0	520	511	
12	0	0	0	0	526	509	
13	0	0	0	0	520	508	
14	0	0	0	0	512	511	
15	0	0	0	0	507	510	
0	0	0	0	0	510	510	
1	0	0	0	0	515	510	
2	0	0	0	0	523	511	
3	0	0	0	0	535	510	
4	0	0	0	0	539	510	
5	0	0	0	0	536	508	
6	0	0	0	0	521	507	
7	0	0	0	0	505	509	
8	0	0	0	0	497	511	
9	0	0	0	0	488	511	
10	0	0	0	0	486	511	
11	0	0	0	0	494	511	
12	0	0	0	0	527	511	
13	0	0	0	0	544	512	
14	0	0	0	0	532	510	
15	0	0	0	0	517	511	
0	0	0	0	0	503	511	
1	0	0	0	0	493	508	
2	0	0	0	0	480	511	
3	0	0	0	0	481	512	
4	0	0	0	0	507	513	
5	0	0	0	0	523	510	
6	0	0	0	0	528	509	
7	0	0	0	0	514	509	
8	0	0	0	0	509	510	
9	0	0	0	0	504	510	
10	0	0	0	0	494	512	
11	0	0	0	0	492	511	
12	0	0	0	0	502	511	
13	0	0	0	0	508	510	
14	0	0	0	0	506	511	
15	0	0	0	0	502	509	
0	0	0	0	0	502	509	
1	0	0	0	0	510	510	
2	0	0	0	0	528	507	
3	0	0	0	0	545	511	
4	0	0	0	0	553	512	
5	0	0	0	0	562	510	
6	0	0	0	0	541	510	
7	0	0	0	0	530	510	
8	0	0	0	0	530	510	
9	0	0	0	0	497	508	
10	0	0	0	0	468	510	
11	0	0	0	0	451	511	
12	0	0	0	0	451	513	
13	0	0	0	0	465	510	
14	0	0	0	0	476	510	
15	0	0	0	0	494	511	
0	0	0	0	0	517	510	
1	0	0	0	0	527	511	
2	0	0	0	0	519	509	
3	0	0	0	0	511	512	
4	0	0	0	0	506	510	
5	0	0	0	0	507	510	
6	0	0	0	0	520	509	
7	0	0	0	0	519	511	
8	0	0	0	0	516	510	
9	0	0	0	0	518	512	
10	0	0	0	0	520	510	
11	0	0	0	0	518	509	
12	0	0	0	0	513	509	
13	0	0	0	0	514	509	
14	0	0	0	0	524	510	
15	0	0	0	0	539	511	
0	0	0	0	0	545	511	
1	0	0	0	0	536	513	
2	0	0	0	0	523	511	
3	0	0	0	0	511	510	
4	0	0	0	0	495	509	
5	0	0	0	0	487	512	
6	0	0	0	0	479	512	
7	0	0	0	0	483	509	
8	0	0	0	0	500	509	
9	0	0	0	0	516	512	
10	0	0	0	0	519	511	
11	0	0	0	0	519	510	
12	0	0	0	0	516	511	
13	0	0	0	0	512	509	
14	0	0	0	0	512	511	
15	0	0	0	0	515	509	
0	0	0	0	0	516	512	
1	0	0	0	0	516	510	
2	0	0	0	0	517	510	
3	0	0	0	0	517	510	
4	0	0	0	0	522	511	
5	0	0	0	0	519	509	
6	0	0	0	0	515	511	
7	0	0	0	0	511	511	
8	0	0	0	0	506	512	
9	0	0	0	0	495	510	
10	0	0	0	0	488	512	
11	0	0	0	0	494	512	
12	0	0	0	0	500	514	
13	0	0	0	0	501	512	
14	0	0	0	0	509	511	
15	0	0	0	0	521	513	
0	0	0	0	0	529	514	
1	0	0	0	0	532	514	
2	0	0	0	0	529	512	
3	0	0	0	0	521	515	
4	0	0	0	0	499	512	
5	0	0	0	0	485	514	
6	0	0	0	0	477	514	
7	0	0	0	0	478	511	
8	0	0	0	0	486	511	
9	0	0	0	0	522	510	
10	0	0	0	0	542	507	
11	0	0	0	0	542	503	
12	0	0	0	0	537	503	
13	0	0	0	0	521	507	
14	0	0	0	0	512	505	
15	0	0	0	0	492	505	
0	0	0	0	0	478	504	
1	0	0	0	0	476	506	
2	0	0	0	0	489	504	
3	0	0	0	0	500	507	
4	0	0	0	0	499	506	
5	0	0	0	0	500	506	
6	0	0	0	0	513	506	
7	0	0	0	0	519	507	
8	0	0	0	0	524	508	
9	0	0	0	0	539	506	
10	0	0	0	0	552	507	
11	0	0	0	0	548	508	
12	0	0	0	0	531	504	
13	0	0	0	0	514	509	
14	0	0	0	0	502	510	
15	0	0	0	0	495	511	
0	0	0	0	0	488	510	
1	0	0	0	0	488	512	
2	0	0	0	0	501	511	
3	0	0	0	0	512	512	
4	0	0	0	0	504	512	
5	0	0	0	0	504	511	
6	0	0	0	0	508	512	
7	0	0	0	0	509	512	
8	0	0	0	0	507	515	
9	0	0	0	0	502	511	
10	0	0	0	0	504	511	
11	0	0	0	0	510	513	
12	0	0	0	0	517	511	
13	0	0	0	0	517	512	
14	0	0	0	0	520	513	
15	0	0	0	0	526	511	
0	0	0	0	0	531	512	
1	0	0	0	0	533	512	
2	0	0	0	0	524	512	
3	0	0	0	0	520	511	
4	0	0	0	0	517	511	
5	0	0	0	0	510	510	
6	0	0	0	0	503	511	
7	0	0	0	0	511	510	
8	0	0	0	0	519	510	
9	0	0	0	0	533	512	
10	0	0	0	0	525	512	
11	0	0	0	0	516	510	
12	0	0	0	0	499	510	
13	0	0	0	0	488	512	
14	0	0	0	0	476	511	
15	0	0	0	0	468	511	
0	0	0	0	0	461	510	
1	0	0	0	0	467	510	
2	0	0	0	0	487	510	
3	0	0	0	0	501	512	
4	0	0	0	0	509	511	
5	0	0	0	0	521	510	
6	0	0	0	0	528	510	
7	0	0	0	0	533	511	
8	0	0	0	0	531	511	
9	0	0	0	0	529	508	
10	0	0	0	0	526	511	
11	0	0	0	0	524	510	
12	0	0	0	0	524	509	
13	0	0	0	0	523	511	
14	0	0	0	0	519	511	
15	0	0	0	0	519	512	
0	0	0	0	0	515	511	
1	0	0	0	0	513	509	
2	0	0	0	0	510	509	
3	0	0	0	0	512	511	
4	0	0	0	0	510	510	
5	0	0	0	0	513	510	
6	0	0	0	0	519	512	
7	0	0	0	0	521	510	
8	0	0	0	0	520	510	
9	0	0	0	0	508	511	
10	0	0	0	0	504	508	
11	0	0	0	0	504	512	
12	0	0	0	0	502	510	
13	0	0	0	0	499	508	
14	0	0	0	0	514	508	
15	0	0	0	0	522	509	
0	0	0	0	0	521	511	
1	0	0	0	0	504	512	
2	0	0	0	0	494	511	
3	0	0	0	0	487	511	
4	0	0	0	0	483	510	
5	0	0	0	0	476	511	
6	0	0	0	0	489	510	
7	0	0	0	0	512	507	
8	0	0	0	0	523	510	
9	0	0	0	0	524	511	
10	0	0	0	0	522	508	
11	0	0	0	0	522	510	
12	0	0	0	0	524	510	
13	0	0	0	0	521	511	
14	0	0	0	0	516	509	
15	0	0	0	0	511	510	
0	0	0	0	0	511	512	
1	0	0	0	0	514	510	
2	0	0	0	0	517	509	
3	0	0	0	0	514	510	
4	0	0	0	0	511	511	
5	0	0	0	0	514	510	
6	0	0	0	0	515	511	
7	0	0	0	0	520	512	
8	0	0	0	0	528	510	
9	0	0	0	0	536	509	
10	0	0	0	0	531	510	
11	0	0	0	0	515	511	
12	0	0	0	0	505	512	
13	0	0	0	0	494	511	
14	0	0	0	0	469	509	
15	0	0	0	0	438	511	
0	0	0	0	0	445	511	
1	0	0	0	0	470	510	
2	0	0	0	0	495	510	
3	0	0	0	0	520	513	
4	0	0	0	0	529	511	
5	0	0	0	0	531	509	
6	0	0	0	0	532	511	
7	0	0	0	0	530	511	
8	0	0	0	0	532	511	
9	0	0	0	0	529	510	
10	0	0	0	0	520	511	
11	0	0	0	0	511	511	
12	0	0	0	0	514	509	
13	0	0	0	0	524	511	
14	0	0	0	0	531	510	
15	0	0	0	0	530	509	
0	0	0	0	0	520	509	
1	0	0	0	0	512	508	
2	0	0	0	0	511	511	
3	0	0	0	0	512	510	
4	0	0	0	0	501	510	
5	0	0	0	0	497	511	
6	0	0	0	0	501	512	
7	0	0	0	0	518	510	
8	0	0	0	0	527	510	
9	0	0	0	0	518	513	
10	0	0	0	0	506	513	
11	0	0	0	0	502	510	
12	0	0	0	0	491	510	
13	0	0	0	0	485	510	
14	0	0	0	0	493	510	
15	0	0	0	0	498	508	
0	0	0	0	0	504	511	
1	0	0	0	0	500	510	
2	0	0	0	0	496	509	
3	0	0	0	0	499	510	
4	0	0	0	0	499	512	
5	0	0	0	0	498	512	
6	0	0	0	0	508	511	
7	0	0	0	0	518	510	
8	0	0	0	0	523	509	
9	0	0	0	0	527	510	
10	0	0	0	0	528	508	
11	0	0	0	0	529	510	
12	0	0	0	0	527	510	
13	0	0	0	0	523	510	
14	0	0	0	0	519	510	
15	0	0	0	0	523	511	
0	0	0	0	0	528	510	
1	0	0	0	0	529	511	
2	0	0	0	0	530	510	
3	0	0	0	0	535	510	
4	0	0	0	0	531	510	
5	0	0	0	0	514	510	
6	0	0	0	0	508	513	
7	0	0	0	0	503	510	
8	0	0	0	0	510	511	
9	0	0	0	0	507	510	
10	0	0	0	0	490	513	
11	0	0	0	0	481	512	
12	0	0	0	0	489	510	
13	0	0	0	0	495	511	
14	0	0	0	0	491	509	
15	0	0	0	0	503	509	
0	0	0	0	0	524	510	
1	0	0	0	0	527	509	
2	0	0	0	0	511	510	
3	0	0	0	0	489	511	
4	0	0	0	0	472	510	
5	0	0	0	0	455	511	
6	0	0	0	0	460	509	
7	0	0	0	0	484	509	
8	0	0	0	0	495	511	
9	0	0	0	0	508	509	
10	0	0	0	0	525	512	
11	0	0	0	0	536	512	
12	0	0	0	0	540	510	
13	0	0	0	0	560	510	
14	0	0	0	0	577	510	
15	0	0	0	0	561	511	
0	0	0	0	0	537	509	
1	0	0	0	0	513	512	
2	0	0	0	0	504	510	
3	0	0	0	0	491	510	
4	0	0	0	0	474	509	
5	0	0	0	0	476	511	
6	0	0	0	0	487	511	
7	0	0	0	0	496	510	
8	0	0	0	0	503	513	
9	0	0	0	0	505	511	
10	0	0	0	0	512	510	
11	0	0	0	0	535	509	
12	0	0	0	0	553	509	
13	0	0	0	0	550	513	
14	0	0	0	0	536	510	
15	0	0	0	0	527	508	
0	0	0	0	0	515	511	
1	0	0	0	0	505	510	
2	0	0	0	0	489	508	
3	0	0	0	0	486	509	
4	0	0	0	0	490	509	
5	0	0	0	0	484	510	
6	0	0	0	0	486	513	
7	0	0	0	0	495	508	
8	0	0	0	0	500	510	
9	0	0	0	0	508	513	
10	0	0	0	0	520	510	
11	0	0	0	0	530	508	
12	0	0	0	0	538	511	
13	0	0	0	0	539	510	
14	0	0	0	0	551	510	
15	0	0	0	0	560	511	
0	0	0	0	0	542	512	
1	0	0	0	0	512	511	
2	0	0	0	0	493	511	
3	0	0	0	0	487	510	
4	0	0	0	0	476	510	
5	0	0	0	0	469	510	
6	0	0	0	0	467	510	
7	0	0	0	0	480	511	
8	0	0	0	0	488	510	
9	0	0	0	0	490	510	
10	0	0	0	0	487	509	
11	0	0	0	0	495	510	
12	0	0	0	0	510	511	
13	0	0	0	0	518	511	
14	0	0	0	0	534	512	
15	0	0	0	0	549	510	
0	0	0	0	0	547	508	
1	0	0	0	0	536	510	
2	0	0	0	0	518	513	
3	0	0	0	0	503	510	
4	0	0	0	0	498	511	
5	0	0	0	0	495	512	
6	0	0	0	0	499	510	
7	0	0	0	0	515	509	
8	0	0	0	0	543	509	
9	0	0	0	0	548	508	
10	0	0	0	0	543	511	
11	0	0	0	0	537	513	
12	0	0	0	0	523	509	
13	0	0	0	0	495	511	
14	0	0	0	0	483	510	
15	0	0	0	0	467	514	
0	0	0	0	0	468	511	
1	0	0	0	0	481	509	
2	0	0	0	0	487	509	
3	0	0	0	0	496	509	
4	0	0	0	0	515	510	
5	0	0	0	0	538	511	
6	0	0	0	0	553	511	
7	0	0	0	0	545	511	
8	0	0	0	0	535	510	
9	0	0	0	0	524	510	
10	0	0	0	0	503	511	
11	0	0	0	0	491	508	
12	0	0	0	0	482	510	
13	0	0	0	0	480	511	
14	0	0	0	0	488	511	
15	0	0	0	0	495	510	
0	0	0	0	0	502	511	
1	0	0	0	0	509	508	
2	0	0	0	0	514	508	
3	0	0	0	0	526	510	
4	0	0	0	0	522	510	
5	0	0	0	0	524	509	
6	0	0	0	0	531	510	
7	0	0	0	0	532	509	
8	0	0	0	0	527	511	
9	0	0	0	0	524	511	
10	0	0	0	0	525	509	
11	0	0	0	0	529	509	
12	0	0	0	0	525	510	
13	0	0	0	0	502	511	
14	0	0	0	0	485	511	
15	0	0	0	0	486	512	
0	0	0	0	0	487	511	
1	0	0	0	0	492	509	
2	0	0	0	0	493	510	
3	0	0	0	0	502	511	
4	0	0	0	0	507	511	
5	0	0	0	0	511	509	
6	0	0	0	0	525	511	
7	0	0	0	0	532	511	
8	0	0	0	0	531	513	
9	0	0	0	0	528	510	
10	0	0	0	0	524	512	
11	0	0	0	0	525	511	
12	0	0	0	0	543	511	
13	0	0	0	0	542	509	
14	0	0	0	0	511	510	
15	0	0	0	0	489	513	
0	0	0	0	0	475	510	
1	0	0	0	0	470	512	
2	0	0	0	0	463	513	
3	0	0	0	0	462	510	
4	0	0	0	0	471	512	
5	0	0	0	0	486	511	
6	0	0	0	0	499	510	
7	0	0	0	0	523	511	
8	0	0	0	0	556	511	
9	0	0	0	0	551	510	
10	0	0	0	0	537	509	
11	0	0	0	0	519	508	
12	0	0	0	0	508	510	
13	0	0	0	0	497	510	
14	0	0	0	0	490	510	
15	0	0	0	0	500	512	
0	0	0	0	0	504	508	
1	0	0	0	0	513	509	
2	0	0	0	0	515	511	
3	0	0	0	0	519	512	
4	0	0	0	0	521	510	
5	0	0	0	0	521	511	
6	0	0	0	0	516	511	
7	0	0	0	0	515	511	
8	0	0	0	0	520	512	
9	0	0	0	0	521	512	
10	0	0	0	0	522	511	
11	0	0	0	0	524	510	
12	0	0	0	0	522	510	
13	0	0	0	0	515	509	
14	0	0	0	0	508	512	
15	0	0	0	0	512	511	
0	0	0	0	0	512	512	
1	0	0	0	0	512	510	
2	0	0	0	0	510	510	
3	0	0	0	0	519	510	
4	0	0	0	0	521	511	
5	0	0	0	0	527	510	
6	0	0	0	0	520	510	
7	0	0	0	0	512	511	
8	0	0	0	0	516	509	
9	0	0	0	0	509	509	
10	0	0	0	0	504	510	
11	0	0	0	0	500	510	
12	0	0	0	0	487	512	
13	0	0	0	0	472	511	
14	0	0	0	0	472	510	
15	0	0	0	0	482	508	
0	0	0	0	0	501	510	
1	0	0	0	0	507	510	
2	0	0	0	0	507	510	
3	0	0	0	0	509	510	
4	0	0	0	0	513	512	
5	0	0	0	0	511	510	
6	0	0	0	0	503	513	
7	0	0	0	0	505	511	
8	0	0	0	0	512	512	
9	0	0	0	0	519	512	
10	0	0	0	0	530	509	
11	0	0	0	0	532	510	
12	0	0	0	0	527	510	
13	0	0	0	0	524	510	
14	0	0	0	0	518	510	
15	0	0	0	0	518	509	
0	0	0	0	0	518	511	
1	0	0	0	0	517	508	
2	0	0	0	0	515	510	
3	0	0	0	0	524	511	
4	0	0	0	0	527	510	
5	0	0	0	0	528	510	
6	0	0	0	0	520	509	
7	0	0	0	0	507	511	
8	0	0	0	0	492	510	
9	0	0	0	0	485	510	
10	0	0	0	0	481	511	
11	0	0	0	0	480	511	
12	0	0	0	0	480	511	
13	0	0	0	0	493	510	
14	0	0	0	0	517	512	
15	0	0	0	0	530	511	
0	0	0	0	0	545	510	
1	0	0	0	0	542	509	
2	0	0	0	0	537	510	
3	0	0	0	0	529	510	
4	0	0	0	0	519	512	
5	0	0	0	0	507	510	
6	0	0	0	0	492	509	
7	0	0	0	0	487	512	
8	0	0	0	0	496	511	
9	0	0	0	0	506	510	
10	0	0	0	0	508	510	
11	0	0	0	0	497	510	
12	0	0	0	0	491	510	
13	0	0	0	0	496	511	
14	0	0	0	0	502	508	
15	0	0	0	0	498	509	
0	0	0	0	0	500	509	
1	0	0	0	0	509	510	
2	0	0	0	0	523	510	
3	0	0	0	0	524	510	
4	0	0	0	0	516	511	
5	0	0	0	0	514	511	
6	0	0	0	0	516	510	
7	0	0	0	0	510	510	
8	0	0	0	0	508	510	
9	0	0	0	0	509	510	
10	0	0	0	0	509	509	
11	0	0	0	0	510	510	
12	0	0	0	0	515	510	
13	0	0	0	0	524	510	
14	0	0	0	0	533	509	
15	0	0	0	0	541	511	
0	0	0	0	0	553	512	
1	0	0	0	0	571	510	
2	0	0	0	0	574	511	
3	0	0	0	0	550	509	
4	0	0	0	0	508	510	
5	0	0	0	0	470	512	
6	0	0	0	0	450	513	
7	0	0	0	0	428	511	
8	0	0	0	0	417	512	
9	0	0	0	0	422	512	
10	0	0	0	0	458	510	
11	0	0	0	0	492	509	
12	0	0	0	0	516	511	
13	0	0	0	0	527	508	
14	0	0	0	0	530	509	
15	0	0	0	0	532	509	
0	0	0	0	0	530	510	
1	0	0	0	0	529	511	
2	0	0	0	0	527	508	
3	0	0	0	0	529	510	
4	0	0	0	0	530	511	
5	0	0	0	0	532	509	
6	0	0	0	0	534	511	
7	0	0	0	0	531	512	
8	0	0	0	0	525	511	
9	0	0	0	0	517	512	
10	0	0	0	0	508	512	
11	0	0	0	0	506	511	
12	0	0	0	0	511	510	
13	0	0	0	0	512	511	
14	0	0	0	0	521	509	
15	0	0	0	0	531	511	
0	0	0	0	0	529	512	
1	0	0	0	0	522	511	
2	0	0	0	0	509	510	
3	0	0	0	0	492	509	
4	0	0	0	0	479	512	
5	0	0	0	0	478	512	
6	0	0	0	0	481	508	
7	0	0	0	0	496	511	
8	0	0	0	0	514	509	
9	0	0	0	0	519	509	
10	0	0	0	0	520	511	
11	0	0	0	0	520	508	
12	0	0	0	0	526	511	
13	0	0	0	0	521	509	
14	0	0	0	0	510	509	
15	0	0	0	0	508	509	
0	0	0	0	0	512	508	
1	0	0	0	0	510	510	
2	0	0	0	0	503	511	
3	0	0	0	0	500	511	
4	0	0	0	0	502	510	
5	0	0	0	0	502	509	
6	0	0	0	0	497	511	
7	0	0	0	0	497	509	
8	0	0	0	0	499	510	
9	0	0	0	0	508	510	
10	0	0	0	0	519	509	
11	0	0	0	0	524	509	
12	0	0	0	0	523	510	
13	0	0	0	0	524	510	
14	0	0	0	0	526	512	
15	0	0	0	0	522	512	
0	0	0	0	0	510	511	
1	0	0	0	0	507	510	
2	0	0	0	0	507	511	
3	0	0	0	0	505	510	
4	0	0	0	0	502	513	
5	0	0	0	0	506	511	
6	0	0	0	0	513	510	
7	0	0	0	0	520	510	
8	0	0	0	0	528	510	
9	0	0	0	0	521	511	
10	0	0	0	0	519	510	
11	0	0	0	0	519	509	
12	0	0	0	0	529	511	
13	0	0	0	0	533	510	
14	0	0	0	0	513	509	
15	0	0	0	0	494	512	
0	0	0	0	0	478	512	
1	0	0	0	0	466	509	
2	0	0	0	0	469	510	
3	0	0	0	0	473	510	
4	0	0	0	0	476	509	
5	0	0	0	0	496	510	
6	0	0	0	0	508	509	
7	0	0	0	0	517	510	
8	0	0	0	0	527	510	
9	0	0	0	0	525	511	
10	0	0	0	0	518	511	
11	0	0	0	0	527	510	
12	0	0	0	0	533	511	
13	0	0	0	0	530	512	
14	0	0	0	0	519	510	
15	0	0	0	0	522	510	
0	0	0	0	0	525	510	
1	0	0	0	0	519	510	
2	0	0	0	0	518	511	
3	0	0	0	0	512	513	
4	0	0	0	0	511	510	
5	0	0	0	0	519	511	
6	0	0	0	0	517	510	
7	0	0	0	0	507	510	
8	0	0	0	0	501	511	
9	0	0	0	0	515	508	
10	0	0	0	0	528	510	
11	0	0	0	0	522	509	
12	0	0	0	0	502	511	
13	0	0	0	0	489	510	
14	0	0	0	0	492	510	
15	0	0	0	0	509	511	
0	0	0	0	0	520	510	
1	0	0	0	0	514	509	
2	0	0	0	0	508	510	
3	0	0	0	0	506	510	
4	0	0	0	0	497	510	
5	0	0	0	0	485	511	
6	0	0	0	0	478	511	
7	0	0	0	0	491	511	
8	0	0	0	0	505	510	
9	0	0	0	0	508	510	
10	0	0	0	0	510	511	
11	0	0	0	0	515	509	
12	0	0	0	0	523	509	
13	0	0	0	0	522	511	
14	0	0	0	0	514	513	
15	0	0	0	0	510	511	
0	0	0	0	0	519	512	
1	0	0	0	0	531	509	
2	0	0	0	0	538	508	
3	0	0	0	0	536	510	
4	0	0	0	0	529	511	
5	0	0	0	0	515	510	
6	0	0	0	0	508	507	
7	0	0	0	0	500	508	
8	0	0	0	0	497	509	
9	0	0	0	0	518	510	
10	0	0	0	0	528	509	
11	0	0	0	0	530	510	
12	0	0	0	0	521	511	
13	0	0	0	0	504	511	
14	0	0	0	0	489	512	
15	0	0	0	0	478	512	
0	0	0	0	0	470	512	
1	0	0	0	0	479	511	
2	0	0	0	0	493	512	
3	0	0	0	0	502	511	
4	0	0	0	0	510	509	
5	0	0	0	0	515	509	
6	0	0	0	0	521	510	
7	0	0	0	0	527	511	
8	0	0	0	0	525	510	
9	0	0	0	0	513	508	
10	0	0	0	0	515	509	
11	0	0	0	0	517	511	
12	0	0	0	0	511	511	
13	0	0	0	0	511	509	
14	0	0	0	0	515	511	
15	0	0	0	0	518	510	
0	0	0	0	0	519	508	
1	0	0	0	0	509	509	
2	0	0	0	0	505	507	
3	0	0	0	0	505	510	
4	0	0	0	0	507	513	
5	0	0	0	0	509	511	
6	0	0	0	0	508	511	
7	0	0	0	0	516	511	
8	0	0	0	0	521	511	
9	0	0	0	0	519	510	
10	0	0	0	0	519	511	
11	0	0	0	0	516	508	
12	0	0	0	0	513	509	
13	0	0	0	0	512	510	
14	0	0	0	0	511	510	
15	0	0	0	0	508	508	
0	0	0	0	0	511	509	
1	0	0	0	0	512	509	
2	0	0	0	0	509	510	
3	0	0	0	0	511	510	
4	0	0	0	0	514	509	
5	0	0	0	0	512	510	
6	0	0	0	0	506	510	
7	0	0	0	0	502	513	
8	0	0	0	0	507	511	
9	0	0	0	0	510	513	
10	0	0	0	0	511	509	
11	0	0	0	0	509	511	
12	0	0	0	0	501	509	
13	0	0	0	0	501	512	
14	0	0	0	0	497	510	
15	0	0	0	0	502	510	
0	0	0	0	0	523	510	
1	0	0	0	0	534	510	
2	0	0	0	0	532	510	
3	0	0	0	0	522	508	
4	0	0	0	0	514	509	
5	0	0	0	0	505	514	
6	0	0	0	0	497	510	
7	0	0	0	0	494	510	
8	0	0	0	0	509	510	
9	0	0	0	0	517	510	
10	0	0	0	0	510	509	
11	0	0	0	0	504	508	
12	0	0	0	0	507	512	
13	0	0	0	0	505	513	
14	0	0	0	0	504	512	
15	0	0	0	0	495	510	
0	0	0	0	0	507	510	
1	0	0	0	0	525	510	
2	0	0	0	0	527	509	
3	0	0	0	0	523	511	
4	0	0	0	0	516	512	
5	0	0	0	0	511	511	
6	0	0	0	0	510	508	
7	0	0	0	0	503	512	
8	0	0	0	0	500	511	
9	0	0	0	0	504	508	
10	0	0	0	0	503	510	
11	0	0	0	0	502	511	
12	0	0	0	0	505	511	
13	0	0	0	0	513	511	
14	0	0	0	0	508	510	
15	0	0	0	0	507	508	
0	0	0	0	0	509	510	
1	0	0	0	0	510	510	
2	0	0	0	0	517	511	
3	0	0	0	0	526	510	
4	0	0	0	0	526	509	
5	0	0	0	0	523	509	
6	0	0	0	0	527	511	
7	0	0	0	0	523	510	
8	0	0	0	0	521	510	
9	0	0	0	0	511	511	
10	0	0	0	0	499	510	
11	0	0	0	0	489	510	
12	0	0	0	0	486	511	
13	0	0	0	0	483	510	
14	0	0	0	0	486	511	
15	0	0	0	0	498	511	
0	0	0	0	0	508	512	
1	0	0	0	0	517	510	
2	0	0	0	0	519	512	
3	0	0	0	0	522	510	
4	0	0	0	0	540	510	
5	0	0	0	0	547	507	
6	0	0	0	0	535	509	
7	0	0	0	0	521	511	
8	0	0	0	0	508	510	
9	0	0	0	0	500	512	
10	0	0	0	0	491	510	
11	0	0	0	0	482	511	
12	0	0	0	0	487	511	
13	0	0	0	0	499	508	
14	0	0	0	0	511	511	
15	0	0	0	0	523	511	
0	0	0	0	0	531	510	
1	0	0	0	0	528	509	
2	0	0	0	0	521	510	
3	0	0	0	0	518	510	
4	0	0	0	0	513	508	
5	0	0	0	0	508	510	
6	0	0	0	0	509	508	
7	0	0	0	0	515	510	
8	0	0	0	0	522	513	
9	0	0	0	0	512	511	
10	0	0	0	0	504	508	
11	0	0	0	0	502	511	
12	0	0	0	0	499	512	
13	0	0	0	0	495	510	
14	0	0	0	0	492	511	
15	0	0	0	0	495	511	
0	0	0	0	0	507	509	
1	0	0	0	0	520	508	
2	0	0	0	0	535	509	
3	0	0	0	0	556	511	
4	0	0	0	0	547	510	
5	0	0	0	0	529	510	
6	0	0	0	0	508	509	
7	0	0	0	0	498	511	
8	0	0	0	0	495	512	
9	0	0	0	0	491	511	
10	0	0	0	0	487	511	
11	0	0	0	0	484	510	
12	0	0	0	0	502	510	
13	0	0	0	0	518	511	
14	0	0	0	0	515	512	
15	0	0	0	0	501	512	
0	0	0	0	0	487	509	
1	0	0	0	0	483	508	
2	0	0	0	0	486	508	
3	0	0	0	0	494	511	
4	0	0	0	0	498	511	
5	0	0	0	0	511	510	
6	0	0	0	0	522	510	
7	0	0	0	0	530	511	
8	0	0	0	0	535	509	
9	0	0	0	0	534	509	
10	0	0	0	0	532	509	
11	0	0	0	0	536	509	
12	0	0	0	0	534	511	
13	0	0	0	0	527	510	
14	0	0	0	0	525	510	
15	0	0	0	0	541	509	
0	0	0	0	0	561	511	
1	0	0	0	0	547	509	
2	0	0	0	0	512	510	
3	0	0	0	0	481	509	
4	0	0	0	0	451	513	
5	0	0	0	0	437	510	
6	0	0	0	0	441	510	
7	0	0	0	0	458	512	
8	0	0	0	0	474	512	
9	0	0	0	0	496	511	
10	0	0	0	0	518	510	
11	0	0	0	0	529	510	
12	0	0	0	0	539	510	
13	0	0	0	0	537	512	
14	0	0	0	0	539	510	
15	0	0	0	0	536	510	
0	0	0	0	0	530	511	
1	0	0	0	0	520	510	
2	0	0	0	0	515	511	
3	0	0	0	0	514	510	
4	0	0	0	0	518	510	
5	0	0	0	0	513	509	
6	0	0	0	0	513	510	
7	0	0	0	0	515	511	
8	0	0	0	0	518	512	
9	0	0	0	0	521	511	
10	0	0	0	0	515	509	
11	0	0	0	0	510	508	
12	0	0	0	0	501	509	
13	0	0	0	0	499	511	
14	0	0	0	0	495	512	
15	0	0	0	0	489	512	
0	0	0	0	0	489	510	
1	0	0	0	0	499	512	
2	0	0	0	0	508	511	
3	0	0	0	0	532	511	
4	0	0	0	0	568	510	
5	0	0	0	0	568	511	
6	0	0	0	0	543	508	
7	0	0	0	0	511	509	
8	0	0	0	0	480	512	
9	0	0	0	0	470	512	
10	0	0	0	0	461	511	
11	0	0	0	0	451	511	
12	0	0	0	0	459	511	
13	0	0	0	0	493	511	
14	0	0	0	0	511	509	
15	0	0	0	0	513	512	
0	0	0	0	0	513	510	
1	0	0	0	0	514	510	
2	0	0	0	0	519	512	
3	0	0	0	0	522	510	
4	0	0	0	0	525	511	
5	0	0	0	0	530	511	
6	0	0	0	0	537	510	
7	0	0	0	0	534	510	
8	0	0	0	0	530	511	
9	0	0	0	0	524	509	
10	0	0	0	0	524	512	
11	0	0	0	0	532	511	
12	0	0	0	0	540	511	
13	0	0	0	0	532	512	
14	0	0	0	0	526	510	
15	0	0	0	0	516	510	
0	0	0	0	0	496	509	
1	0	0	0	0	481	510	
2	0	0	0	0	463	511	
3	0	0	0	0	470	511	
4	0	0	0	0	487	508	
5	0	0	0	0	496	510	
6	0	0	0	0	503	510	
7	0	0	0	0	500	509	
8	0	0	0	0	503	510	
9	0	0	0	0	504	509	
10	0	0	0	0	505	508	
11	0	0	0	0	509	510	
12	0	0	0	0	520	510	
13	0	0	0	0	527	511	
14	0	0	0	0	528	508	
15	0	0	0	0	521	508	
0	0	0	0	0	524	509	
1	0	0	0	0	531	513	
2	0	0	0	0	528	508	
3	0	0	0	0	524	511	
4	0	0	0	0	514	512	
5	0	0	0	0	507	512	
6	0	0	0	0	504	510	
7	0	0	0	0	501	512	
8	0	0	0	0	496	511	
9	0	0	0	0	502	510	
10	0	0	0	0	513	511	
11	0	0	0	0	515	513	
12	0	0	0	0	510	511	
13	0	0	0	0	505	511	
14	0	0	0	0	508	510	
15	0	0	0	0	510	511	
0	0	0	0	0	508	511	
1	0	0	0	0	513	511	
2	0	0	0	0	522	513	
3	0	0	0	0	527	509	
4	0	0	0	0	527	509	
5	0	0	0	0	520	510	
6	0	0	0	0	512	511	
7	0	0	0	0	511	510	
8	0	0	0	0	512	509	
9	0	0	0	0	500	511	
10	0	0	0	0	494	511	
11	0	0	0	0	492	511	
12	0	0	0	0	494	510	
13	0	0	0	0	501	509	
14	0	0	0	0	504	512	
15	0	0	0	0	504	510	
0	0	0	0	0	507	509	
1	0	0	0	0	518	510	
2	0	0	0	0	518	512	
3	0	0	0	0	514	509	
4	0	0	0	0	511	507	
5	0	0	0	0	513	511	
6	0	0	0	0	508	511	
7	0	0	0	0	498	510	
8	0	0	0	0	491	507	
9	0	0	0	0	492	511	
10	0	0	0	0	492	510	
11	0	0	0	0	499	511	
12	0	0	0	0	503	510	
13	0	0	0	0	513	509	
14	0	0	0	0	519	510	
15	0	0	0	0	524	510	
0	0	0	0	0	526	510	
1	0	0	0	0	526	508	
2	0	0	0	0	521	511	
3	0	0	0	0	519	511	
4	0	0	0	0	520	511	
5	0	0	0	0	522	511	
6	0	0	0	0	519	511	
7	0	0	0	0	516	510	
8	0	0	0	0	514	508	
9	0	0	0	0	517	510	
10	0	0	0	0	515	509	
11	0	0	0	0	520	510	
12	0	0	0	0	526	513	
13	0	0	0	0	525	511	
14	0	0	0	0	515	511	
15	0	0	0	0	508	509	
0	0	0	0	0	507	512	
1	0	0	0	0	504	513	
2	0	0	0	0	504	511	
3	0	0	0	0	498	510	
4	0	0	0	0	495	511	
5	0	0	0	0	497	512	
6	0	0	0	0	502	511	
7	0	0	0	0	500	511	
8	0	0	0	0	502	509	
9	0	0	0	0	506	510	
10	0	0	0	0	508	510	
11	0	0	0	0	511	510	
12	0	0	0	0	513	512	
13	0	0	0	0	512	511	
14	0	0	0	0	515	510	
15	0	0	0	0	516	511	
0	0	0	0	0	519	512	
1	0	0	0	0	520	508	
2	0	0	0	0	523	509	
3	0	0	0	0	519	510	
4	0	0	0	0	511	512	
5	0	0	0	0	510	511	
6	0	0	0	0	505	510	
7	0	0	0	0	505	509	
8	0	0	0	0	501	512	
9	0	0	0	0	502	510	
10	0	0	0	0	505	511	
11	0	0	0	0	521	511	
12	0	0	0	0	525	508	
13	0	0	0	0	523	510	
14	0	0	0	0	528	510	
15	0	0	0	0	521	511	
0	0	0	0	0	516	511	
1	0	0	0	0	512	510	
2	0	0	0	0	500	512	
3	0	0	0	0	489	511	
4	0	0	0	0	486	512	
5	0	0	0	0	487	509	
6	0	0	0	0	495	510	
7	0	0	0	0	497	509	
8	0	0	0	0	503	510	
9	0	0	0	0	515	511	
10	0	0	0	0	526	510	
11	0	0	0	0	535	511	
12	0	0	0	0	534	510	
13	0	0	0	0	528	509	
14	0	0	0	0	521	509	
15	0	0	0	0	512	511	
0	0	0	0	0	495	509	
1	0	0	0	0	485	510	
2	0	0	0	0	484	511	
3	0	0	0	0	492	512	
4	0	0	0	0	497	508	
5	0	0	0	0	512	510	
6	0	0	0	0	529	510	
7	0	0	0	0	538	510	
8	0	0	0	0	552	511	
9	0	0	0	0	542	512	
10	0	0	0	0	520	511	
11	0	0	0	0	495	511	
12	0	0	0	0	471	509	
13	0	0	0	0	467	510	
14	0	0	0	0	464	510	
15	0	0	0	0	479	513	
0	0	0	0	0	493	513	
1	0	0	0	0	504	512	
2	0	0	0	0	519	511	
3	0	0	0	0	523	515	
4	0	0	0	0	527	513	
5	0	0	0	0	525	513	
6	0	0	0	0	524	513	
7	0	0	0	0	522	515	
8	0	0	0	0	522	514	
9	0	0	0	0	520	513	
10	0	0	0	0	526	512	
11	0	0	0	0	525	512	
12	0	0	0	0	519	515	
13	0	0	0	0	512	512	
14	0	0	0	0	507	510	
15	0	0	0	0	511	509	
0	0	0	0	0	514	508	
1	0	0	0	0	522	508	
2	0	0	0	0	518	507	
3	0	0	0	0	518	506	
4	0	0	0	0	512	504	
5	0	0	0	0	506	504	
6	0	0	0	0	498	506	
7	0	0	0	0	497	504	
8	0	0	0	0	500	504	
9	0	0	0	0	504	504	
10	0	0	0	0	517	505	
11	0	0	0	0	519	505	
12	0	0	0	0	523	505	
13	0	0	0	0	523	506	
14	0	0	0	0	519	509	
15	0	0	0	0	510	508	
0	0	0	0	0	496	507	
1	0	0	0	0	487	508	
2	0	0	0	0	486	506	
3	0	0	0	0	489	507	
4	0	0	0	0	492	509	
5	0	0	0	0	502	508	
6	0	0	0	0	508	510	
7	0	0	0	0	517	509	
8	0	0	0	0	522	512	
9	0	0	0	0	520	513	
10	0	0	0	0	518	515	
11	0	0	0	0	514	512	
12	0	0	0	0	515	513	
13	0	0	0	0	527	514	
14	0	0	0	0	536	512	
15	0	0	0	0	532	512	
0	0	0	0	0	524	513	
1	0	0	0	0	515	512	
2	0	0	0	0	508	512	
3	0	0	0	0	500	514	
4	0	0	0	0	494	511	
5	0	0	0	0	496	509	
6	0	0	0	0	503	511	
7	0	0	0	0	514	513	
8	0	0	0	0	516	514	
9	0	0	0	0	523	512	
10	0	0	0	0	523	510	
11	0	0	0	0	519	512	
12	0	0	0	0	514	512	
13	0	0	0	0	506	512	
14	0	0	0	0	497	512	
15	0	0	0	0	494	511	
0	0	0	0	0	496	513	
1	0	0	0	0	496	511	
2	0	0	0	0	501	512	
3	0	0	0	0	503	509	
4	0	0	0	0	513	510	
5	0	0	0	0	534	512	
6	0	0	0	0	539	511	
7	0	0	0	0	532	512	
8	0	0	0	0	515	512	
9	0	0	0	0	495	510	
10	0	0	0	0	483	513	
11	0	0	0	0	479	511	
12	0	0	0	0	489	513	
13	0	0	0	0	499	508	
14	0	0	0	0	507	508	
15	0	0	0	0	522	509	
0	0	0	0	0	525	511	
1	0	0	0	0	519	512	
2	0	0	0	0	509	512	
3	0	0	0	0	499	508	
4	0	0	0	0	502	508	
5	0	0	0	0	514	509	
6	0	0	0	0	533	508	
7	0	0	0	0	545	509	
8	0	0	0	0	540	511	
9	0	0	0	0	524	510	
10	0	0	0	0	511	509	
11	0	0	0	0	508	508	
12	0	0	0	0	504	510	
13	0	0	0	0	505	511	
14	0	0	0	0	500	510	
15	0	0	0	0	496	511	
0	0	0	0	0	501	510	
1	0	0	0	0	507	511	
2	0	0	0	0	505	510	
3	0	0	0	0	502	514	
4	0	0	0	0	499	510	
5	0	0	0	0	500	508	
6	0	0	0	0	511	510	
7	0	0	0	0	520	510	
8	0	0	0	0	513	509	
9	0	0	0	0	511	510	
10	0	0	0	0	513	511	
11	0	0	0	0	525	510	
12	0	0	0	0	534	510	
13	0	0	0	0	530	509	
14	0	0	0	0	523	512	
15	0	0	0	0	516	510	
0	0	0	0	0	519	509	
1	0	0	0	0	529	510	
2	0	0	0	0	533	509	
3	0	0	0	0	522	509	
4	0	0	0	0	518	510	
5	0	0	0	0	513	510	
6	0	0	0	0	488	511	
7	0	0	0	0	476	511	
8	0	0	0	0	463	510	
9	0	0	0	0	453	511	
10	0	0	0	0	457	511	
11	0	0	0	0	463	510	
12	0	0	0	0	476	509	
13	0	0	0	0	513	510	
14	0	0	0	0	548	510	
15	0	0	0	0	556	512	
0	0	0	0	0	550	510	
1	0	0	0	0	540	509	
2	0	0	0	0	523	509	
3	0	0	0	0	516	511	
4	0	0	0	0	504	510	
5	0	0	0	0	492	509	
6	0	0	0	0	500	510	
7	0	0	0	0	508	511	
8	0	0	0	0	514	508	
9	0	0	0	0	527	511	
10	0	0	0	0	521	510	
11	0	0	0	0	520	511	
12	0	0	0	0	519	510	
13	0	0	0	0	513	510	
14	0	0	0	0	505	510	
15	0	0	0	0	497	511	
0	0	0	0	0	490	508	
1	0	0	0	0	492	511	
2	0	0	0	0	492	509	
3	0	0	0	0	499	511	
4	0	0	0	0	509	511	
5	0	0	0	0	520	511	
6	0	0	0	0	523	510	
7	0	0	0	0	526	509	
8	0	0	0	0	527	508	
9	0	0	0	0	520	512	
10	0	0	0	0	517	511	
11	0	0	0	0	509	511	
12	0	0	0	0	507	511	
13	0	0	0	0	505	511	
14	0	0	0	0	505	511	
15	0	0	0	0	511	511	
0	0	0	0	0	518	512	
1	0	0	0	0	525	511	
2	0	0	0	0	529	511	
3	0	0	0	0	528	511	
4	0	0	0	0	532	511	
5	0	0	0	0	532	510	
6	0	0	0	0	518	509	
7	0	0	0	0	504	509	
8	0	0	0	0	504	510	
9	0	0	0	0	503	512	
10	0	0	0	0	495	511	
11	0	0	0	0	489	510	
12	0	0	0	0	494	511	
13	0	0	0	0	499	508	
14	0	0	0	0	501	509	
15	0	0	0	0	502	509	
0	0	0	0	0	507	512	
1	0	0	0	0	513	512	
2	0	0	0	0	525	510	
3	0	0	0	0	523	510	
4	0	0	0	0	523	510	
5	0	0	0	0	526	511	
6	0	0	0	0	520	510	
7	0	0	0	0	524	510	
8	0	0	0	0	517	512	
9	0	0	0	0	507	509	
10	0	0	0	0	501	513	
11	0	0	0	0	501	512	
12	0	0	0	0	503	509	
13	0	0	0	0	500	510	
14	0	0	0	0	494	510	
15	0	0	0	0	492	509	
0	0	0	0	0	508	510	
1	0	0	0	0	510	510	
2	0	0	0	0	505	511	
3	0	0	0	0	510	511	
4	0	0	0	0	523	511	
5	0	0	0	0	529	512	
6	0	0	0	0	527	509	
7	0	0	0	0	527	513	
8	0	0	0	0	528	510	
9	0	0	0	0	524	511	
10	0	0	0	0	526	508	
11	0	0	0	0	507	509	
12	0	0	0	0	492	509	
13	0	0	0	0	473	509	
14	0	0	0	0	459	510	
15	0	0	0	0	455	511	
0	0	0	0	0	469	512	
1	0	0	0	0	470	513	
2	0	0	0	0	481	512	
3	0	0	0	0	513	510	
4	0	0	0	0	531	511	
5	0	0	0	0	536	510	
6	0	0	0	0	535	510	
7	0	0	0	0	529	510	
8	0	0	0	0	529	511	
9	0	0	0	0	529	509	
10	0	0	0	0	521	509	
11	0	0	0	0	523	510	
12	0	0	0	0	530	512	
13	0	0	0	0	529	510	
14	0	0	0	0	524	508	
15	0	0	0	0	523	509	
0	0	0	0	0	512	512	
1	0	0	0	0	509	510	
2	0	0	0	0	503	510	
3	0	0	0	0	500	511	
4	0	0	0	0	499	510	
5	0	0	0	0	505	512	
6	0	0	0	0	509	510	
7	0	0	0	0	505	511	
8	0	0	0	0	505	511	
9	0	0	0	0	514	510	
10	0	0	0	0	515	512	
11	0	0	0	0	519	509	
12	0	0	0	0	524	509	
13	0	0	0	0	527	508	
14	0	0	0	0	522	507	
15	0	0	0	0	517	510	
0	0	0	0	0	513	509	
1	0	0	0	0	503	510	
2	0	0	0	0	496	511	
3	0	0	0	0	495	511	
4	0	0	0	0	495	511	
5	0	0	0	0	499	510	
6	0	0	0	0	502	510	
7	0	0	0	0	507	510	
8	0	0	0	0	511	510	
9	0	0	0	0	515	511	
10	0	0	0	0	514	510	
11	0	0	0	0	512	510	
12	0	0	0	0	515	510	
13	0	0	0	0	513	512	
14	0	0	0	0	516	511	
15	0	0	0	0	513	511	
0	0	0	0	0	513	510	
1	0	0	0	0	511	510	
2	0	0	0	0	511	510	
3	0	0	0	0	511	511	
4	0	0	0	0	514	510	
5	0	0	0	0	511	512	
6	0	0	0	0	512	511	
7	0	0	0	0	510	511	
8	0	0	0	0	512	509	
9	0	0	0	0	510	511	
10	0	0	0	0	512	510	
11	0	0	0	0	510	510	
12	0	0	0	0	511	511	
13	0	0	0	0	511	510	
14	0	0	0	0	511	510	
15	0	0	0	0	509	509	
0	0	0	0	0	509	511	
1	0	0	0	0	510	512	
2	0	0	0	0	511	510	
3	0	0	0	0	511	510	
4	0	0	0	0	511	512	
5	0	0	0	0	510	509	
6	0	0	0	0	510	509	
7	0	0	0	0	509	509	
8	0	0	0	0	510	510	
9	0	0	0	0	511	510	
10	0	0	0	0	508	510	
11	0	0	0	0	509	513	
12	0	0	0	0	509	510	
13	0	0	0	0	509	509	
14	0	0	0	0	512	509	
15	0	0	0	0	510	510	
0	0	0	0	0	510	511	
1	0	0	0	0	511	508	
2	0	0	0	0	509	510	
3	0	0	0	0	511	509	
4	0	0	0	0	512	509	
5	0	0	0	0	511	511	
6	0	0	0	0	511	509	
7	0	0	0	0	511	510	
8	0	0	0	0	511	510	
9	0	0	0	0	510	510	
10	0	0	0	0	510	511	
11	0	0	0	0	513	512	
12	0	0	0	0	516	508	
13	0	0	0	0	512	507	
14	0	0	0	0	523	510	
15	0	0	0	0	526	509	
0	0	0	0	0	528	511	
1	0	0	0	0	521	511	
2	0	0	0	0	514	511	
3	0	0	0	0	505	510	
4	0	0	0	0	503	511	
5	0	0	0	0	502	511	
6	0	0	0	0	501	511	
7	0	0	0	0	497	512	
8	0	0	0	0	503	511	
9	0	0	0	0	509	510	
10	0	0	0	0	504	508	
11	0	0	0	0	493	512	
12	0	0	0	0	499	510	
13	0	0	0	0	504	510	
14	0	0	0	0	505	510	
15	0	0	0	0	506	512	
0	0	0	0	0	509	512	
1	0	0	0	0	510	508	
2	0	0	0	0	505	509	
3	0	0	0	0	510	511	
4	0	0	0	0	513	511	
5	0	0	0	0	524	508	
6	0	0	0	0	529	509	
7	0	0	0	0	531	508	
8	0	0	0	0	527	508	
9	0	0	0	0	511	511	
10	0	0	0	0	505	512	
11	0	0	0	0	488	511	
12	0	0	0	0	488	511	
13	0	0	0	0	507	513	
14	0	0	0	0	511	512	
15	0	0	0	0	505	510	
0	0	0	0	0	502	509	
1	0	0	0	0	504	511	
2	0	0	0	0	508	511	
3	0	0	0	0	508	511	
4	0	0	0	0	508	512	
5	0	0	0	0	510	512	
6	0	0	0	0	516	511	
7	0	0	0	0	521	512	
8	0	0	0	0	526	511	
9	0	0	0	0	539	508	
10	0	0	0	0	550	511	
11	0	0	0	0	543	510	
12	0	0	0	0	523	510	
13	0	0	0	0	501	511	
14	0	0	0	0	498	511	
15	0	0	0	0	496	511	
0	0	0	0	0	488	511	
1	0	0	0	0	480	510	
2	0	0	0	0	478	508	
3	0	0	0	0	487	510	
4	0	0	0	0	498	510	
5	0	0	0	0	500	508	
6	0	0	0	0	503	511	
7	0	0	0	0	513	509	
8	0	0	0	0	528	510	
9	0	0	0	0	536	510	
10	0	0	0	0	531	510	
11	0	0	0	0	524	509	
12	0	0	0	0	515	510	
13	0	0	0	0	518	510	
14	0	0	0	0	519	508	
15	0	0	0	0	515	511	
0	0	0	0	0	511	513	
1	0	0	0	0	511	510	
2	0	0	0	0	511	512	
3	0	0	0	0	504	511	
